bpm,ibi,sdnn,sdsd,rmssd,pnn20,pnn50,hr_mad,class
78.77461706783369,761.6666666666667,61.300477469687756,83.71856417292621,93.85792086611183,0.4594594594594595,0.10810810810810811,28.333333333333428,0.0
363.6363636363637,164.99999999999997,114.64680060467839,102.28234453968655,155.5124656872464,0.8571428571428571,0.7142857142857143,66.66666666666666,0.0
64.42541224594144,931.3095238095239,169.71109738600984,133.62523520858488,219.97960278404366,0.9230769230769231,0.8076923076923077,135.0,1.0
151.840490797546,395.1515151515152,179.20342053668438,142.99339534087267,360.87239973277104,1.0,1.0,140.00000000000003,0.0
62.666821399559005,957.4444444444446,51.76645083544714,20.78204149687683,29.98083679140135,0.41379310344827586,0.10344827586206896,45.0,0.0
99.6893151425098,601.869918699187,111.576650480796,99.0560922240727,150.86039526283517,0.8378378378378378,0.6216216216216216,73.33333333333337,1.0
191.99298655756863,312.5114155251142,154.5364559964362,130.3029617884089,225.45763411591275,0.9545454545454546,0.9090909090909091,113.33333333333337,0.0
67.25829051844931,892.0833333333334,35.38233630248605,24.064410427665266,26.814108520900138,0.06451612903225806,0.06451612903225806,1.6666666666666288,0.0
114.3663960465937,524.6296296296297,207.90589896823218,184.76531661061884,249.7242924150997,0.7,0.6,116.66666666666663,0.0
108.21643286573146,554.4444444444445,270.4317535596242,23.094010767585008,540.4936015655813,1.0,1.0,83.33333333333326,0.0
63.83733301808724,939.8888888888889,19.6729431290294,15.025960150953745,29.066153337537983,0.6428571428571429,0.0,18.33333333333337,0.0
199.91456642460486,300.12820512820514,170.40043529806456,177.4677852874003,317.5519788306463,0.9333333333333333,0.8666666666666667,68.33333333333336,0.0
58.11138014527845,1032.5,8.4339167876469,4.478606703016608,9.514987095307488,0.0,0.0,6.66666666666697,0.0
188.39848675914246,318.47389558232936,91.02466118435548,84.29032300252652,141.44522280675415,0.9493670886075949,0.7341772151898734,20.000000000000057,1.0
130.9551748415865,458.1720430107526,200.9508556509913,170.01919826236616,255.5853847325564,0.7,0.6,173.33333333333331,0.0
123.16715542521993,487.14285714285717,203.44827798253533,49.95593241709167,387.7990018600118,1.0,1.0,100.00000000000011,0.0
176.1348192443599,340.6481481481481,126.72834620217589,67.76763485610809,227.99647620608783,1.0,0.9692307692307692,120.00000000000001,0.0
155.94713656387665,384.7457627118644,166.334361816313,68.61966964911477,294.2565684986066,1.0,1.0,143.33333333333331,0.0
72.0,833.3333333333334,57.9271573232759,60.00000000000006,94.75113602367934,0.5,0.5,6.666666666666629,0.0
171.9745222929936,348.8888888888889,184.9040458530843,109.92068127122202,323.0478935397472,1.0,1.0,138.33333333333331,0.0
155.51366635249764,385.8181818181818,167.345548487895,133.55125420601635,234.63328361035605,0.9166666666666666,0.8333333333333334,163.33333333333331,0.0
71.6208308952604,837.7450980392156,13.972910023787886,8.547149818709567,15.752718754175358,0.15151515151515152,0.0,6.6666666666667425,0.0
176.4109496451504,340.11494252873564,157.3084988158915,163.87277630150874,264.36753975938757,0.8823529411764706,0.8823529411764706,83.33333333333331,0.0
118.58654422040325,505.959595959596,177.11256398227505,139.54538721133963,195.87816102938575,0.5714285714285714,0.5238095238095238,26.666666666666742,0.0
67.01897669949555,895.2688172043012,51.401673497911936,15.126192221060421,26.565901573949677,0.5172413793103449,0.06896551724137931,16.66666666666663,0.0
62.86379511059371,954.4444444444445,14.915399284044293,5.845141211536144,10.038241057321946,0.034482758620689655,0.0,10.0,0.0
59.94079921065615,1000.9876543209875,47.7287846547683,66.38554059431918,74.4043009509531,0.2,0.16,6.6666666666667425,0.0
53.74529404128263,1116.3768115942028,96.30824628700051,56.984348056342604,110.71198154284325,0.9523809523809523,0.9047619047619048,76.66666666666674,0.0
76.92307692307692,780.0,87.48015648007139,47.70278351999549,110.79510618955854,0.9,0.9,73.33333333333331,1.0
69.47368421052632,863.6363636363636,44.26248334531971,21.034188027404866,36.21406264606794,0.625,0.15625,33.33333333333337,0.0
81.2870448772227,738.125,11.209417543595501,3.390245444261459,5.942849511594602,0.0,0.0,10.0,0.0
169.76556184316897,353.4285714285714,122.43426668977908,75.09813666620113,227.11401545063077,0.9841269841269841,0.9841269841269841,89.99999999999997,1.0
95.2166572875633,630.1418439716313,70.25101043099755,71.41637982191693,111.79799761414066,0.7608695652173914,0.5652173913043478,23.333333333333258,1.0
164.42772702847927,364.9019607843138,164.52990131744403,151.88885384682607,253.8958354091206,0.9642857142857143,0.8214285714285714,126.66666666666667,0.0
87.03790360318204,689.3548387096773,37.54490124109232,31.129303406468836,34.83784169082828,0.07692307692307693,0.07692307692307693,16.66666666666663,0.0
82.32099471201944,728.8541666666666,26.082260028502983,14.331475499981657,17.9267264543062,0.07692307692307693,0.038461538461538464,11.666666666666686,0.0
68.71818602498844,873.131313131313,66.9888145542229,23.742460426066494,38.832796848940866,0.53125,0.21875,36.66666666666663,0.0
89.89298454221165,667.4603174603175,22.61723746585886,7.359328924720107,13.027748163908536,0.075,0.0,13.333333333333314,0.0
155.55268928156846,385.7213930348258,169.34152639143235,65.62146763585662,308.3012189029763,1.0,0.9838709677419355,160.0,0.0
160.07114273010228,374.8333333333333,184.0228699555212,113.77037227271471,296.863577319776,0.9629629629629629,0.9629629629629629,201.66666666666663,0.0
147.3899692937564,407.0833333333333,75.80013009370249,16.555182695279267,71.93103693173119,1.0,0.6666666666666666,65.0,0.0
108.76132930513596,551.6666666666666,67.79826648426643,30.646843637531596,128.4708601386396,1.0,1.0,39.99999999999997,1.0
73.76160057852236,813.4313725490196,49.74763300519309,14.535263036071193,23.971916439404193,0.34375,0.03125,36.66666666666663,0.0
182.3175965665236,329.0960451977401,127.45344485665527,113.77075865030963,208.22621359562007,0.9148936170212766,0.8085106382978723,16.66666666666663,1.0
220.58823529411768,271.99999999999994,196.638416050035,174.0501116288774,362.0769135943697,1.0,0.9722222222222222,108.33333333333334,0.0
53.307008884501485,1125.5555555555554,7.494854201795572,4.338153491911851,7.832793690940086,0.0,0.0,6.666666666666515,0.0
149.22279792746116,402.0833333333333,182.7224143609003,84.7265308744174,344.94812124318975,0.9857142857142858,0.9857142857142858,69.99999999999999,0.0
89.10891089108911,673.3333333333334,0.0,0.0,0.0,0.0,0.0,0.0,0.0
59.94487827285255,1000.9195402298851,89.25788781793823,59.8723131134168,94.30194665465366,0.6785714285714286,0.5357142857142857,70.0,0.0
71.47220525351251,839.4871794871796,103.97111822702514,32.23912962039996,49.81123789156274,0.6521739130434783,0.30434782608695654,43.33333333333337,0.0
103.09973045822102,581.9607843137255,100.15059786631141,79.92930209462193,122.27473619317732,0.88,0.58,70.00000000000011,1.0
63.847900113507386,939.7333333333332,156.0738286837354,113.8053110064487,216.40005893540408,1.0,0.8695652173913043,110.0,1.0
56.33802816901409,1065.0,34.951125827091715,14.834477692020766,28.593576072128382,0.5416666666666666,0.08333333333333333,23.333333333333485,0.0
202.4539877300613,296.36363636363643,124.63107479931352,107.38737239652326,129.18939194027888,0.5,0.2727272727272727,13.333333333333371,1.0
64.85756108546335,925.1041666666667,89.51250833992731,43.27446039431084,80.38438122869215,0.8387096774193549,0.6129032258064516,69.99999999999994,0.0
152.5998492840995,393.18518518518516,180.3699292716486,140.11184388975096,253.16410387743264,0.8285714285714286,0.8285714285714286,183.33333333333331,0.0
86.33093525179856,695.0,169.55005816048023,0.0,0.0,0.0,0.0,128.33333333333334,0.0
80.95018450184502,741.1965811965812,21.236521510399033,7.509099845274643,11.547005383792516,0.13157894736842105,0.0,9.999999999999886,0.0
61.524438874330635,975.2222222222223,17.985247727025314,13.37192196361184,21.63791195370928,0.2413793103448276,0.06896551724137931,11.666666666666629,0.0
139.2016376663255,431.02941176470586,172.17396711449024,31.486445537214987,342.79240583649283,1.0,1.0,150.0,0.0
260.73460941541646,230.11904761904762,168.27434643740037,170.71553200263006,260.2859301462504,0.7777777777777778,0.7222222222222222,135.0,0.0
72.05764611689351,832.6666666666667,8.648332255044956,3.6327465320880217,6.340037731068526,0.0,0.0,6.6666666666667425,0.0
58.859149812280485,1019.3827160493828,51.84685455048795,26.585208920249833,49.36935621752962,0.68,0.36,26.66666666666663,0.0
162.95571323709322,368.1981981981982,162.9911742384734,70.78980910336728,306.04601411275326,1.0,1.0,136.66666666666666,0.0
94.20474853203983,636.910569105691,33.09991643856227,23.900162469940685,26.80519573736627,0.1282051282051282,0.05128205128205128,23.33333333333337,0.0
192.0544835414302,312.4113475177305,192.12597094833745,148.381066902382,357.43859008088697,1.0,0.9722222222222222,103.33333333333331,0.0
143.82298709280883,417.17948717948724,162.07967943331792,108.79133952459426,179.9444358684091,1.0,1.0,120.00000000000006,1.0
207.4823053589484,289.18128654970764,187.16025042170665,162.9912382197464,315.848567291855,1.0,0.9183673469387755,103.33333333333334,0.0
105.81319399085567,567.037037037037,104.40832051943937,76.59749766999933,126.54462322306176,0.8125,0.625,56.6666666666666,1.0
67.21904539619558,892.6041666666667,30.216055047588338,6.306614321985034,9.25543529161519,0.06451612903225806,0.0,26.66666666666663,0.0
213.42367139529958,281.1309523809524,164.2760413819034,140.08311285489535,263.33019120129154,0.9787234042553191,0.9787234042553191,70.0,0.0
202.92504570383912,295.6756756756757,176.5822760617216,135.44276607991748,227.57283216454886,0.8636363636363636,0.7727272727272727,160.0,0.0
55.60004576135454,1079.1358024691358,25.717563654497326,22.422706745122856,38.801489089409394,0.6538461538461539,0.15384615384615385,20.0,0.0
132.55459624174708,452.64367816091954,229.531221943786,175.30396881269255,409.4282372791128,0.9166666666666666,0.875,29.99999999999997,0.0
216.19382895009315,277.52873563218395,154.0905345971139,99.35012523899077,238.09530020703127,0.9565217391304348,0.9130434782608695,118.33333333333334,0.0
69.18238993710692,867.2727272727273,31.913757368837036,28.82463139400051,39.695017879381844,0.34375,0.1875,10.0,0.0
77.73610637572452,771.8421052631579,15.962261202673318,7.060442610052851,12.241317324938928,0.10810810810810811,0.0,13.333333333333314,0.0
66.87163720215219,897.2413793103449,33.18436789253346,24.840477445650922,44.19024527854287,0.6428571428571429,0.32142857142857145,20.0,0.0
95.33898305084747,629.3333333333333,67.56971708292603,16.65096997467094,25.110865288865583,0.3055555555555556,0.05555555555555555,34.999999999999886,0.0
67.36842105263158,890.625,22.054816493354814,11.093522904541006,18.960437966600473,0.3548387096774194,0.0,13.333333333333371,0.0
97.98816568047337,612.3188405797101,166.98646068118714,134.09944511331216,287.2913091207186,0.8444444444444444,0.7777777777777778,31.66666666666663,1.0
156.98711595639244,382.19696969696975,143.4881883391015,134.94497174517306,210.18592959567965,0.84375,0.75,36.666666666666686,1.0
95.14656415185009,630.6060606060605,14.996173371707409,5.510588995822203,8.834156894821817,0.023809523809523808,0.0,11.666666666666629,0.0
167.05336426914153,359.1666666666667,197.37689552956516,155.23876472735176,284.43250843012277,1.0,0.6666666666666666,121.6666666666667,0.0
68.48051648605026,876.1616161616162,87.16685965608629,72.80080080069327,91.36693420853446,0.46875,0.34375,30.0,0.0
143.25259515570937,418.8405797101449,127.45221211344585,40.261490959985416,280.6803902688634,1.0,1.0,23.33333333333337,0.0
67.90050689614523,883.6458333333334,8.389782766026224,6.264306091883643,9.466030570784387,0.03225806451612903,0.0,6.666666666666629,0.0
206.12117426608373,291.09090909090907,188.59293402945988,166.61133723469464,323.02586130325085,0.9772727272727273,0.9090909090909091,173.33333333333337,0.0
161.20777891504605,372.1904761904762,201.99158061527166,134.80758303761863,358.57247833906916,1.0,1.0,130.00000000000003,0.0
145.748987854251,411.6666666666667,149.3287449691923,0.0,43.333333333333314,1.0,0.0,90.0,0.0
92.16226860968885,651.025641025641,27.447477386865202,3.793243553363366,6.592727226844893,0.0,0.0,26.66666666666663,0.0
150.7327285415213,398.0555555555555,153.47190799364515,115.35179296372543,261.872343295367,1.0,0.9411764705882353,126.66666666666669,0.0
72.92817679558011,822.7272727272727,56.974532354433826,96.19960845260972,101.22723647822218,0.0967741935483871,0.0967741935483871,3.3333333333333712,0.0
148.43076923076922,404.2288557213931,160.78536736301734,68.59265462841802,299.2889869461137,1.0,0.9841269841269841,156.66666666666674,0.0
78.77461706783369,761.6666666666667,43.72560010537491,46.10455107285646,52.60615370284554,0.3,0.06666666666666667,23.333333333333258,0.0
236.08903020667722,254.14141414141417,165.89524564403024,117.06313586171258,274.84338974930597,0.95,0.9,173.33333333333331,0.0
65.47917711991973,916.3218390804598,52.452093286201375,42.02903650212611,82.05689083394113,0.8571428571428571,0.6071428571428571,30.000000000000114,0.0
96.0256068284876,624.8333333333334,103.95498491601491,49.87710639432881,52.88320145975466,0.06060606060606061,0.06060606060606061,23.333333333333258,0.0
91.37055837563452,656.6666666666666,120.83045973594572,0.0,0.0,0.0,0.0,30.000000000000114,0.0
202.38931834153198,296.4583333333333,182.88380019837734,184.3779078414082,319.7767078089692,0.9047619047619048,0.7619047619047619,70.00000000000001,0.0
198.51744711625383,302.24043715846994,139.45734188110993,121.87257739800553,216.33695280475538,0.9433962264150944,0.8301886792452831,86.66666666666663,0.0
65.321527072144,918.5333333333334,108.86925900159126,102.34737049385751,190.91187232639328,0.9130434782608695,0.8695652173913043,60.000000000000114,0.0
83.38158656629994,719.5833333333334,35.30964221474544,17.694165640088336,27.284509239574845,0.358974358974359,0.1282051282051282,23.33333333333337,0.0
67.52995280164589,888.494623655914,78.7120276986196,69.80769311260607,83.27354176820322,0.4482758620689655,0.1724137931034483,23.333333333333258,0.0
43.16546762589928,1390.0,0.0,0.0,0.0,0.0,0.0,0.0,0.0
59.687351965892944,1005.2380952380952,26.116779430099193,7.2008229982309855,27.621784210346828,0.6666666666666666,0.0,20.000000000000114,0.0
88.18289786223276,680.4040404040405,6.448844323035301,3.2756013358554363,5.321222809315537,0.0,0.0,3.3333333333333712,0.0
58.03108808290156,1033.9285714285713,21.288896640770407,9.930408667748228,24.452860504065285,0.4444444444444444,0.0,15.0,0.0
97.82608695652175,613.3333333333333,0.0,0.0,0.0,0.0,0.0,0.0,0.0
75.39267015706805,795.8333333333334,142.46913245929346,139.5948723809787,213.59503623954572,0.8888888888888888,0.7222222222222222,93.33333333333337,1.0
56.63675562288776,1059.382716049383,5.595194663518347,4.0379527559035,6.73046397354188,0.0,0.0,3.3333333333332575,0.0
100.25906735751295,598.4496124031008,132.5604514962263,133.5518001875427,200.96295955004024,0.825,0.65,66.66666666666674,1.0
84.24336973478941,712.2222222222221,124.19618093172063,92.62534009212001,139.78880173643768,0.9090909090909091,0.6818181818181818,66.66666666666663,1.0
191.91919191919195,312.6315789473684,163.2834830743004,156.67868191426416,242.5475065410752,0.8181818181818182,0.8181818181818182,96.66666666666666,0.0
62.74900398406374,956.1904761904763,91.17275719933447,77.60859075921829,87.60585782233015,0.5,0.15384615384615385,36.666666666666686,0.0
179.4765267968426,334.3055555555555,162.34530861221418,111.58943721677399,202.28185464333848,1.0,0.8461538461538461,98.33333333333333,0.0
125.41404911479157,478.415300546448,97.17429659585267,80.15116890316203,134.93894366904806,0.9,0.7166666666666667,60.0,1.0
79.70170123514332,752.8070175438597,16.392950913211674,9.56653257834832,16.630591588292255,0.2702702702702703,0.0,13.333333333333258,0.0
173.2546201232033,346.3111111111111,130.85425687844426,87.89442108497727,239.74458239704273,0.9859154929577465,0.9154929577464789,30.000000000000057,0.0
231.28814648249275,259.4166666666667,97.92538968237218,84.81725870703907,184.82170956758674,0.8947368421052632,0.8421052631578947,10.0,0.0
62.7104865869237,956.7777777777778,28.745155254708294,16.618638686830177,27.62640749001936,0.4482758620689655,0.034482758620689655,10.0,0.0
82.88409703504043,723.9024390243903,56.65424272711983,48.624410879036176,67.62642481555072,0.525,0.45,20.0,0.0
166.53449643140365,360.2857142857143,151.03951218261668,87.13924299325848,275.8699563276741,1.0,0.9047619047619048,120.0,0.0
212.09740769835034,282.8888888888889,166.53491088420435,170.1191250217701,250.84783770477156,0.8695652173913043,0.6086956521739131,115.00000000000001,0.0
211.6843702579666,283.44086021505376,182.91052686874912,173.17191157904196,334.0975366882612,0.9523809523809523,0.9047619047619048,83.33333333333331,0.0
143.99999999999997,416.66666666666674,205.3821272209882,159.4424818135327,246.691064859434,0.7777777777777778,0.75,218.33333333333331,0.0
74.38920627203112,806.5686274509804,33.09212032384558,11.905571029050975,20.908198817157306,0.28125,0.0,16.66666666666663,0.0
96.0698689956332,624.5454545454545,208.0659992769035,46.29481479111037,476.6977456845592,1.0,1.0,140.0,0.0
71.93229901269395,834.1176470588234,75.88285960209835,69.80348158700012,109.50646860650134,0.875,0.625,40.0,1.0
122.17194570135747,491.1111111111111,152.42889457460015,8.333333333333314,39.228674319799374,1.0,0.0,43.33333333333337,0.0
145.16129032258064,413.3333333333333,141.315250415516,137.75244811418506,225.52935964856565,1.0,0.8571428571428571,93.33333333333334,0.0
94.4298719333436,635.3921568627452,127.60492211366899,109.93169788807454,182.55739663222113,0.896551724137931,0.8275862068965517,81.66666666666669,1.0
155.95075239398085,384.7368421052632,163.85457747889726,105.24011637044076,215.6104793090512,1.0,1.0,73.33333333333337,0.0
109.20121334681497,549.4444444444445,204.42708259613116,113.33333333333337,165.058912041866,0.5,0.5,241.66666666666669,0.0
138.85778275475923,432.0967741935484,191.3030528200426,60.009787789443244,376.7868914677379,1.0,0.9830508474576272,18.333333333333343,0.0
74.03055229142186,810.4761904761905,19.00948563790422,3.6433145443258894,5.571871466032478,0.0,0.0,13.333333333333258,0.0
208.44686648501366,287.84313725490193,173.79817449973024,144.11039337469313,326.9789055556376,1.0,0.9473684210526315,115.0,0.0
98.67218906078695,608.074074074074,101.65176305792555,94.45640210342242,157.32502277354888,0.9069767441860465,0.627906976744186,76.66666666666674,1.0
205.3691275167785,292.15686274509807,189.70200634435224,175.42267200848167,257.51183599790585,0.8888888888888888,0.5555555555555556,96.66666666666667,0.0
87.84473953013278,683.0232558139535,78.53903045065147,64.99995154755256,107.06769850656204,0.7857142857142857,0.5476190476190477,26.66666666666663,1.0
65.2860652860653,919.0322580645161,17.621946816299424,10.889455767557,19.446031681249217,0.3,0.0,13.333333333333371,0.0
62.11894627861499,965.8888888888887,33.08444116066616,17.311733851553427,29.891246043588,0.5172413793103449,0.06896551724137931,20.0,0.0
82.63514288993457,726.0833333333334,64.9353845500792,45.89687882645906,52.61535962412562,0.3076923076923077,0.15384615384615385,26.66666666666663,0.0
202.52301397886123,296.26262626262627,156.1936930480386,146.86025810088276,245.29294211407793,0.8823529411764706,0.7058823529411765,136.66666666666663,0.0
70.34914017717561,852.8888888888889,77.32918251951071,29.091134290916603,45.821576339510045,0.5862068965517241,0.3103448275862069,50.0,0.0
72.12501669560572,831.8888888888888,23.706278795310496,9.202927661946523,15.811388300841898,0.14285714285714285,0.0,18.333333333333258,0.0
210.4579408898993,285.0925925925926,150.52682405453564,156.31548407245697,276.41511176066666,0.9565217391304348,0.8260869565217391,121.66666666666667,0.0
180.79550020088385,331.86666666666673,169.3033569267505,113.53222458982272,273.9328043271738,0.9473684210526315,0.8947368421052632,120.0,0.0
63.013329742830216,952.1794871794872,125.11854996376901,77.71425977798096,124.46552400832395,0.7916666666666666,0.625,98.33333333333326,0.0
69.12603281740952,867.9797979797979,33.14024269908827,29.325874875580006,32.53341265634607,0.12903225806451613,0.03225806451612903,16.666666666666515,0.0
71.54547580079496,838.627450980392,34.998764189749444,19.452772714684002,35.92453744409788,0.6060606060606061,0.06060606060606061,23.333333333333314,0.0
63.744046892172435,941.2643678160919,6.632891055748735,3.3333333333333384,4.714045207910324,0.0,0.0,3.3333333333333712,0.0
57.27923627684963,1047.5000000000002,119.11254182095021,139.81610933366318,197.94728483112985,0.6296296296296297,0.5925925925925926,20.0,0.0
197.65066394279876,303.56589147286826,167.2213951990563,149.6202600660159,243.93988330460982,0.9333333333333333,0.8,153.33333333333331,0.0
134.57943925233647,445.83333333333326,123.79137916493036,3.3333333333333144,180.03086155187697,1.0,1.0,91.66666666666663,0.0
64.59080912142609,928.9247311827958,38.496726079428484,40.18183976516735,50.61473947233015,0.4,0.23333333333333334,16.666666666666742,0.0
115.95536638674794,517.4404761904763,90.71145399279811,93.54784479281756,151.2486747583648,0.8727272727272727,0.7090909090909091,66.66666666666666,1.0
64.24870466321244,933.8709677419355,38.484710683739664,31.47819154922781,36.883199025713196,0.26666666666666666,0.06666666666666667,13.333333333333371,0.0
71.21661721068249,842.5,13.333333333333334,4.6661570414217195,7.138477036884715,0.0,0.0,6.666666666666629,0.0
52.662375658279686,1139.3333333333335,61.376796194580834,42.67642213415788,64.58198923332523,0.75,0.375,26.666666666666742,0.0
83.64501870112207,717.3170731707316,21.52983072264772,7.535103036971525,11.737877907772674,0.1,0.0,13.333333333333371,0.0
84.10207260093446,713.4188034188035,32.01216986789265,34.112633728400326,35.399903292991524,0.02702702702702703,0.02702702702702703,3.3333333333333712,0.0
70.94319108453384,845.7471264367816,67.98070805741763,8.234123447862256,13.25296290046212,0.11538461538461539,0.0,16.66666666666663,0.0
80.61977968768915,744.2342342342342,47.360661116696846,43.18135001190264,50.14358468405826,0.4117647058823529,0.058823529411764705,16.666666666666742,0.0
209.44558521560577,286.4705882352941,157.79100344739246,129.77149147636393,248.79264011979487,1.0,0.92,96.66666666666669,0.0
73.82091592617908,812.7777777777777,48.54996153893533,17.510864784114133,27.452701026507278,0.34285714285714286,0.05714285714285714,31.666666666666686,0.0
143.38549075391185,418.45238095238085,155.4652059854836,125.0041797242805,207.7565929937415,0.9565217391304348,0.782608695652174,46.66666666666663,1.0
75.09302063366782,799.0090090090091,26.061429681350074,9.51859057473807,14.076510510355467,0.1388888888888889,0.0,23.333333333333258,0.0
126.3791374122367,474.7619047619048,193.9011132597129,46.14458596561678,383.55511978662196,1.0,1.0,26.666666666666686,0.0
198.75776397515529,301.875,151.9729907929549,168.6131132042951,319.3852602178824,1.0,0.875,55.0,0.0
83.90022675736962,715.1351351351351,35.830721418276106,10.31898645611483,13.988531457793513,0.1111111111111111,0.0,20.0,0.0
71.5622076707203,838.4313725490196,12.240383556873436,10.49824954678527,18.766687299269236,0.3333333333333333,0.0,6.666666666666629,0.0
53.78020265003897,1115.6521739130435,29.609940598228572,18.739551726177194,21.915816897917136,0.045454545454545456,0.045454545454545456,13.333333333333485,0.0
140.5204460966543,426.98412698412693,185.8653570867325,136.65853634352868,344.8961196263787,1.0,0.8666666666666667,133.33333333333334,0.0
75.90608616366538,790.4504504504505,72.42750196118624,33.45143686387607,49.90732151439046,0.6111111111111112,0.25,43.33333333333337,0.0
78.8109229173868,761.3157894736842,22.782206477404042,8.186805270512679,14.363366816533876,0.1891891891891892,0.0,8.333333333333371,0.0
170.02518891687657,352.8888888888889,190.88436160715952,159.68418763459727,301.02909912252426,1.0,0.8888888888888888,183.33333333333334,0.0
68.14270964781461,880.5050505050506,11.134960629915687,5.051814855409223,9.391189724653854,0.0,0.0,6.6666666666667425,0.0
57.22460658082976,1048.5,22.022084874557656,9.043789220055345,14.761478061762627,0.1111111111111111,0.0,8.333333333333258,0.0
179.41345600920064,334.423076923077,178.72377717384074,106.64371497863549,302.34867656767113,1.0,1.0,158.33333333333331,0.0
86.67736757624398,692.2222222222222,33.23530559388423,14.661931053658055,23.345235059857508,0.35,0.05,21.666666666666686,0.0
69.75811840171055,860.1149425287356,48.4667817562602,16.413718374933584,24.469683939494704,0.3333333333333333,0.07407407407407407,26.66666666666663,0.0
66.54343807763401,901.6666666666667,63.628697229403585,19.68887380343502,37.06044660428366,0.6129032258064516,0.1935483870967742,43.3333333333332,0.0
63.220005619556055,949.0666666666667,63.43164299727173,48.393699108238096,103.02565561201595,1.0,0.8095238095238095,60.0,0.0
70.38748666903663,852.4242424242423,68.00808392863993,45.614469715006,71.0822634138996,0.7419354838709677,0.3870967741935484,53.33333333333326,0.0
69.64041875284481,861.5686274509802,20.945545552891808,8.965464466876542,11.355889615359468,0.06060606060606061,0.0,11.666666666666629,0.0
161.00917431192659,372.6495726495727,190.7746683047017,155.6071879690138,310.88554290692014,0.967741935483871,0.8387096774193549,179.99999999999997,0.0
63.26095142462659,948.4523809523808,64.80423599015403,52.11167495549021,62.66312046703918,0.48,0.12,33.333333333333314,0.0
154.72779369627509,387.77777777777777,140.9579220990049,0.0,193.33333333333326,1.0,1.0,108.33333333333334,0.0
88.98305084745762,674.2857142857143,21.483175578936283,8.377534964106271,12.983207833076397,0.12195121951219512,0.0,14.999999999999943,0.0
68.77950101146325,872.3529411764706,12.973815050724106,3.22916512386783,4.714045207910309,0.0,0.0,8.333333333333371,0.0
90.41095890410959,663.6363636363636,28.031531504611564,11.411948043149113,20.199265727182077,0.3023255813953488,0.0,18.333333333333314,0.0
151.85484802958513,395.11415525114154,152.16757784718297,82.75945253641414,293.5732244180966,0.9857142857142858,0.9285714285714286,49.99999999999997,0.0
58.60465116279071,1023.8095238095236,41.58608988904842,25.52034416239051,59.655875900130454,0.9411764705882353,0.5294117647058824,30.0,0.0
150.67805123053742,398.2,153.09577249406843,54.55884279975966,301.48188654259,1.0,1.0,75.0,0.0
175.08896797153025,342.6829268292683,180.99427218803197,136.13659120497047,289.301469926774,1.0,0.9032258064516129,176.66666666666663,0.0
94.4558521560575,635.2173913043478,90.20281006664563,79.53410290798048,148.37639824296704,0.9333333333333333,0.7333333333333333,63.333333333333314,1.0
152.1963291400289,394.2276422764227,195.14711897307794,106.1052255112606,327.96100826023223,0.967741935483871,0.9354838709677419,213.33333333333326,0.0
189.4736842105263,316.6666666666667,187.61374147209978,150.51461353931347,341.492801290647,1.0,1.0,103.33333333333334,0.0
176.0479041916167,340.81632653061234,135.46682637692942,84.90040918555312,190.40367972694554,0.9487179487179487,0.8974358974358975,96.66666666666669,0.0
57.48294382348672,1043.7878787878788,60.463658461015704,17.29718526881642,26.146895240524334,0.29411764705882354,0.11764705882352941,10.0,0.0
59.5950592130396,1006.7948717948718,12.454387523009988,6.937496524301228,10.736748938937644,0.08333333333333333,0.0,11.666666666666686,0.0
58.7138863000932,1021.9047619047618,36.91935195467052,17.216800775071953,27.33724753666066,0.48148148148148145,0.037037037037037035,26.666666666666686,0.0
198.64176570458403,302.05128205128204,145.5627949878716,128.7017025679542,252.35032758189124,0.9761904761904762,0.9047619047619048,98.33333333333333,0.0
96.26865671641791,623.2558139534884,29.10808843691345,16.805876948258316,20.131512058903525,0.1,0.025,16.666666666666742,0.0
153.7522879804759,390.23809523809524,215.6550165607108,183.13718635204404,303.02967532402516,1.0,0.8571428571428571,208.33333333333331,0.0
69.59043131569409,862.1875,20.062564901244972,11.861935310661096,16.59755786864638,0.10344827586206896,0.034482758620689655,13.333333333333258,0.0
74.6180267677366,804.0952380952381,13.382901061291847,8.9640230985588,13.28422328310143,0.08823529411764706,0.0,10.0,0.0
164.3002028397566,365.18518518518516,193.6105575917128,114.94795148269755,340.7163839925924,1.0,0.9444444444444444,159.99999999999997,0.0
183.22475570032574,327.46666666666664,175.190765865226,127.23260769131208,265.3927906581739,0.9743589743589743,0.8974358974358975,113.33333333333331,0.0
81.72812328013208,734.1414141414142,180.73927927472678,150.0456309194796,244.81512298966427,0.8666666666666667,0.8333333333333334,130.0,1.0
72.14927436074639,831.6091954022987,39.32983317423991,40.460314346740276,56.89496495329826,0.5555555555555556,0.2962962962962963,20.0,0.0
67.1892497200448,892.9999999999999,37.52875440788579,12.787065733492762,27.214206341907587,0.5517241379310345,0.0,31.66666666666663,0.0
157.84780023781212,380.1129943502825,185.07896833625477,96.34932751022602,340.76034109457794,1.0,1.0,103.33333333333334,0.0
51.93306405077899,1155.3333333333335,68.7992248018343,88.05993679952196,107.34592748748386,0.5416666666666666,0.20833333333333334,26.666666666666742,0.0
54.304943142260385,1104.871794871795,26.557963848664716,17.761881782188638,29.112807414530746,0.44,0.08,18.333333333333258,0.0
188.73576992210903,317.9047619047619,143.71507462941028,133.01379480048442,245.52812053004132,0.9565217391304348,0.8695652173913043,113.33333333333331,0.0
70.56381874783813,850.2941176470588,26.063868851641566,12.373634301776445,23.77645611355624,0.5151515151515151,0.030303030303030304,20.0,0.0
122.44897959183673,490.0,231.40358477694124,161.37143718992138,403.65918884715205,1.0,0.8333333333333334,248.33333333333337,0.0
65.85114896535956,911.1458333333334,74.61758698989432,63.23824031056366,79.04220550374374,0.5806451612903226,0.1935483870967742,15.0,0.0
87.9045996592845,682.5581395348837,44.68573704490819,27.9950684927602,68.66450913546834,1.0,0.7142857142857143,20.0,1.0
168.22429906542055,356.6666666666667,147.68961446974606,57.57975589016227,285.9195691099159,0.9814814814814815,0.9814814814814815,140.0,0.0
159.01060070671377,377.33333333333337,137.70822617242428,43.90520090680222,221.3970791737476,1.0,1.0,26.666666666666686,0.0
197.2766522749917,304.14141414141415,192.19804303412758,142.3589774179674,327.105565043246,0.9824561403508771,0.9649122807017544,188.33333333333337,0.0
116.89800076403924,513.2679738562091,106.11887566173954,87.83401855098522,144.70595984552543,0.875,0.75,83.33333333333331,1.0
56.67231775248244,1058.7179487179487,10.664940688761753,8.469945049160719,12.999287729775114,0.08333333333333333,0.0,6.6666666666667425,0.0
74.25232038501203,808.0555555555555,24.309920243024703,13.978928100501914,21.462407149127525,0.2571428571428571,0.02857142857142857,16.666666666666686,0.0
54.878048780487795,1093.3333333333335,50.81557066709198,24.271792945458937,34.58518853064824,0.34782608695652173,0.043478260869565216,20.0,0.0
72.54290171606864,827.0967741935484,36.49266568904471,12.921708003187742,20.370138161918113,0.3448275862068966,0.0,30.000000000000114,0.0
67.68507638072856,886.4583333333333,13.357725084925361,9.447058461777798,17.35255344642717,0.3333333333333333,0.0,9.999999999999886,0.0
143.88489208633092,417.0,195.05811099943185,75.14594852849298,385.1791310065526,1.0,1.0,200.0,0.0
119.46902654867257,502.2222222222222,203.20275102638587,0.0,0.0,0.0,0.0,220.0,0.0
57.378984651711924,1045.679012345679,62.062061165107735,18.586206560060276,30.946604138294525,0.5769230769230769,0.038461538461538464,36.666666666666515,0.0
72.97933560031389,822.1505376344087,47.63622899990113,47.06146774200467,50.209876976863285,0.07142857142857142,0.03571428571428571,6.666666666666629,0.0
74.84828051247472,801.6216216216216,18.03602703602479,13.595670254057522,22.973414586817036,0.3333333333333333,0.027777777777777776,13.333333333333371,0.0
72.89416846652267,823.1111111111112,32.465746431554976,11.157499537009505,18.12653934349932,0.10714285714285714,0.03571428571428571,26.666666666666742,0.0
119.87936667504397,500.5031446540881,119.25941322219711,113.27055727982504,181.3060821507006,0.8823529411764706,0.7058823529411765,46.66666666666674,1.0
72.40948813982523,828.6206896551723,35.3799003632846,8.620305371289362,14.921446734468221,0.11538461538461539,0.0,16.66666666666663,0.0
58.7503885607709,1021.2698412698413,123.431861932754,128.3409810131098,146.51001735439522,0.4666666666666667,0.26666666666666666,26.666666666666742,0.0
73.40090877315623,817.4285714285714,40.732076313592536,8.284168695795133,12.985663286116417,0.11764705882352941,0.0,23.33333333333337,0.0
113.28671328671331,529.6296296296296,226.61643113135148,161.79166607052585,235.49003281573417,0.7222222222222222,0.6111111111111112,236.66666666666674,0.0
97.04957316159954,618.2407407407406,6.780787633659131,3.1446603773521957,4.830458915396459,0.0,0.0,4.999999999999886,0.0
69.23076923076923,866.6666666666667,0.0,0.0,0.0,0.0,0.0,0.0,1.0
74.5598895409044,804.7222222222222,12.726345765505895,6.124927691738491,10.000000000000002,0.02857142857142857,0.0,6.6666666666667425,0.0
86.16897399404839,696.3063063063063,19.663593954246206,7.730788392087663,13.158576980363348,0.1111111111111111,0.0,16.66666666666663,0.0
183.6734693877551,326.6666666666667,191.54434502514323,125.61439092162797,316.7594760327868,1.0,1.0,196.66666666666666,1.0
174.29577464788733,344.24242424242425,189.846247779995,129.34358683313647,331.58028607127886,0.96875,0.96875,123.33333333333333,0.0
158.2480818414322,379.15151515151524,143.9054377810541,69.30198721608758,248.31133385030682,1.0,0.9777777777777777,140.0,0.0
122.72727272727273,488.88888888888886,220.31178804280376,72.44389235143723,442.0372944639057,1.0,1.0,256.66666666666663,0.0
192.73743016759775,311.304347826087,149.28732187915367,152.2882660493952,231.30806039439875,0.8461538461538461,0.6923076923076923,120.0,0.0
90.70185962807439,661.5079365079365,47.79919627488593,13.413402259278275,21.267428688847886,0.3170731707317073,0.024390243902439025,35.0,0.0
61.349693251533736,978.0000000000001,57.950170165601946,34.732429468118525,64.61201624835861,0.8275862068965517,0.5172413793103449,36.66666666666663,0.0
157.9163810829335,379.9479166666667,174.92805285663954,87.02921540288135,306.81251299230763,1.0,0.9824561403508771,161.66666666666663,0.0
234.09490333919155,256.30630630630634,130.81354078505402,115.66909649557131,205.75065816014617,1.0,0.8095238095238095,80.0,1.0
169.69962727472043,353.56589147286826,128.34142801177615,39.85664912929153,213.65248798203834,1.0,1.0,123.33333333333331,0.0
58.36575875486381,1028.0,44.02019738458448,16.78658809921185,33.87245186237748,0.8260869565217391,0.08695652173913043,33.333333333333485,0.0
84.42573662056523,710.6837606837607,61.3577593835491,19.974907098163097,21.751968833835427,0.05555555555555555,0.027777777777777776,10.0,0.0
63.166419219867734,949.8717948717948,62.535328608146486,62.87684124112191,68.93601317920464,0.30434782608695654,0.08695652173913043,25.000000000000057,0.0
160.91954022988506,372.85714285714283,164.301586534849,47.945442245314254,216.48710508172687,1.0,1.0,96.66666666666669,0.0
170.15840572304546,352.6126126126126,152.78325760660417,52.670735225610336,299.6651570490075,1.0,1.0,73.33333333333334,0.0
64.0176600441501,937.2413793103449,30.974825589819314,7.145578335055704,14.586199012974253,0.07407407407407407,0.0,13.333333333333371,0.0
162.75659824046923,368.6486486486486,195.59174780006222,138.74904860155598,343.26548993628325,1.0,1.0,150.00000000000003,0.0
71.41912445443724,840.1111111111112,67.55783987365982,49.24610734417058,58.986641439505235,0.48148148148148145,0.07407407407407407,24.999999999999943,0.0
56.413232733604175,1063.5802469135804,65.9649858857106,43.16611645107141,62.079353684185186,0.6923076923076923,0.3076923076923077,43.33333333333326,0.0
86.04522890237176,697.3076923076923,93.15926639463935,62.0239649024651,69.86892489989141,0.4,0.05,23.33333333333337,0.0
181.3186813186813,330.90909090909093,185.6379894202923,165.27954589838257,298.8496463292388,1.0,0.9130434782608695,143.33333333333331,0.0
78.2516743038421,766.7567567567567,56.925674561802154,31.82492401800379,74.20774975335657,0.9444444444444444,0.6388888888888888,40.0,1.0
91.20788824979458,657.8378378378378,19.19109240656945,6.689755934794652,11.952286093343954,0.08571428571428572,0.0,13.333333333333371,0.0
69.64933494558646,861.4583333333333,54.930116587654666,44.981464817525726,48.758787462761106,0.03225806451612903,0.03225806451612903,10.0,0.0
115.43747136967475,519.7619047619048,166.8116716145728,136.6006477343766,178.28726596801357,0.6,0.4857142857142857,39.99999999999994,0.0
75.87403917679146,790.7843137254903,11.320027469694939,9.644280832585576,15.297966458904831,0.21875,0.0,6.666666666666686,0.0
58.72252747252746,1021.7543859649124,89.92764096437915,78.28428207146342,137.5706889000867,0.875,0.6875,53.33333333333326,0.0
64.214540533891,934.3678160919542,26.59622086304864,8.967417183869095,15.661018156937768,0.14814814814814814,0.0,13.333333333333371,0.0
176.66613899002695,339.62365591397844,78.89947517146877,78.71750638479375,112.4203906174477,0.7450980392156863,0.5686274509803921,53.333333333333314,1.0
119.24760440080446,503.15476190476187,116.60443857920625,105.51128954144227,179.6750610741971,0.9444444444444444,0.8518518518518519,49.99999999999997,1.0
82.71108558299827,725.4166666666667,22.616212228301087,6.849348892187753,13.052600138300807,0.10256410256410256,0.0,18.33333333333337,0.0
53.544868616757554,1120.5555555555557,29.528182813151826,28.141330237727477,45.7624616749441,0.6521739130434783,0.21739130434782608,10.0,0.0
230.8788598574822,259.8765432098765,176.3192052065688,161.52367765625928,297.77078745314344,0.9302325581395349,0.8837209302325582,96.66666666666667,0.0
75.0,800.0,12.76569477008451,8.256654019692666,11.697238854763844,0.08571428571428572,0.0,10.0,0.0
69.28563342012906,865.9803921568628,40.2750300670904,16.04121820695379,25.246261849504315,0.30303030303030304,0.06060606060606061,26.666666666666686,0.0
81.62790697674419,735.042735042735,29.602030758010066,26.984350690895564,30.219417817244814,0.10810810810810811,0.02702702702702703,6.6666666666667425,0.0
83.33333333333331,720.0000000000001,83.032791380541,55.128778530112776,65.40812046085887,0.52,0.12,46.666666666666686,0.0
164.17675735178486,365.45977011494256,153.61006796189338,88.06654049953113,287.6780608017696,0.98,0.98,80.00000000000001,1.0
56.97061039939714,1053.1746031746031,39.66094650600996,11.488214416663062,18.273426844874233,0.21052631578947367,0.0,26.666666666666515,0.0
91.68081494057725,654.4444444444445,17.708197167232488,0.0,0.0,0.0,0.0,20.000000000000114,0.0
206.54483637909053,290.4938271604938,166.49794843878416,158.69353217058904,288.24300126417256,0.875,0.875,103.33333333333331,0.0
71.17934403349616,842.9411764705883,71.36285217472283,63.420670211376674,82.02611064949278,0.8484848484848485,0.18181818181818182,20.0,1.0
75.85523054040655,790.9803921568626,30.027540863409534,9.618932972413196,15.690141986468957,0.21875,0.0,18.33333333333337,0.0
223.95023328149304,267.91666666666663,186.7554662296841,139.65990437089982,265.10375327407195,1.0,1.0,98.33333333333334,0.0
76.13293051359518,788.095238095238,163.93821080349525,143.2240598263131,230.0285445616072,1.0,0.8181818181818182,75.0,1.0
153.6954087346025,390.3825136612021,186.989473380364,66.17719723037223,363.00620418045787,1.0,1.0,23.333333333333343,0.0
72.28915662650603,830.0,26.233460397828654,22.11641477430589,28.375785190637192,0.3,0.03333333333333333,11.666666666666629,0.0
64.88372093023257,924.7311827956988,17.674358105551907,16.31480430486903,18.073922282301286,0.03333333333333333,0.03333333333333333,6.666666666666629,0.0
72.05934298834336,832.6470588235293,21.523348194304535,7.794423531887695,15.53445990192272,0.21875,0.0,11.666666666666742,0.0
83.04498269896193,722.5,10.0115673838556,5.38502201759194,8.34313149466402,0.029411764705882353,0.0,6.666666666666629,0.0
211.40939597315437,283.8095238095238,106.21076039452295,0.0,280.0,1.0,1.0,76.66666666666669,0.0
72.1153846153846,832.0000000000001,20.73567587440192,20.293880835977433,34.61270309707513,0.5294117647058824,0.20588235294117646,13.333333333333258,0.0
54.86518171160609,1093.5897435897436,90.6525397974548,95.84839881581514,140.356688476182,0.84,0.68,45.00000000000023,0.0
163.08040770101928,367.91666666666663,105.2238024931199,150.87399697417362,190.7198837931537,0.3333333333333333,0.3333333333333333,8.333333333333314,0.0
73.66984993178717,814.4444444444445,21.14033065604494,12.773981492651519,26.601109894495906,0.5142857142857142,0.05714285714285714,13.333333333333371,0.0
122.8668941979522,488.33333333333337,132.1468038878647,90.4873635540508,170.91800069905733,0.8333333333333334,0.8333333333333334,108.33333333333337,0.0
81.68772231080584,734.5045045045046,28.728993800941662,17.159943700958607,20.372350864310242,0.14705882352941177,0.058823529411764705,20.0,0.0
70.92537313432835,845.959595959596,36.20701399539893,10.848847064959903,17.270318146718925,0.125,0.03125,26.666666666666742,0.0
177.169883676339,338.65800865800867,132.69790115059067,93.24184783345233,238.20895339451093,0.971830985915493,0.9295774647887324,26.666666666666686,0.0
122.5531914893617,489.58333333333337,96.97418757357835,89.12468724513549,181.20992532705554,1.0,1.0,95.0,0.0
55.070821529745054,1089.506172839506,21.21230529792627,11.282051282051249,20.339007194925063,0.34615384615384615,0.0,10.0,0.0
62.54203093476799,959.3548387096773,27.983858056249794,15.585685106754662,27.875384069767325,0.5333333333333333,0.03333333333333333,26.66666666666663,0.0
65.26315789473685,919.3548387096773,16.942224294409694,5.03390538861108,8.819171036881967,0.0,0.0,10.0,0.0
63.143124415341426,950.2222222222224,38.604675722693486,28.385452518004126,54.523361368003506,0.8275862068965517,0.3448275862068966,24.999999999999943,0.0
129.3026040107752,464.0277777777778,144.0710317564153,105.9951743657377,170.53209838970662,0.9230769230769231,0.6923076923076923,115.00000000000006,1.0
70.34193998604326,852.9761904761906,77.42553660660585,37.9769621884699,60.742999054676076,0.6666666666666666,0.37037037037037035,51.66666666666674,0.0
62.96641791044775,952.888888888889,30.30381143774363,14.934569055944497,24.502717028167556,0.3793103448275862,0.0,25.0,0.0
91.06239460370995,658.8888888888889,19.077489805630897,7.815523978575452,15.000000000000004,0.1590909090909091,0.0,13.333333333333371,0.0
88.83666274970624,675.3968253968253,90.65298794152417,75.35397947170557,104.91530976088393,0.6,0.45,41.66666666666657,1.0
73.6949846468782,814.1666666666666,95.4588958329751,45.61403292847496,66.02356481674639,0.6,0.4,55.0,0.0
72.47210399171747,827.9047619047619,88.12720140863385,103.3871292791163,126.02131783559324,0.5294117647058824,0.29411764705882354,10.0,1.0
94.02017291066284,638.1609195402298,131.1066548570798,92.23888517082908,176.73669281125123,0.8181818181818182,0.7727272727272727,116.66666666666663,1.0
65.14886164623466,920.967741935484,19.067763491782763,10.277627626530833,18.459164139817947,0.3333333333333333,0.0,13.333333333333371,0.0
131.4878892733564,456.3157894736842,157.87660714629592,118.40862237122705,238.90762200451422,1.0,0.8333333333333334,143.33333333333331,0.0
74.06560749799976,810.0925925925926,12.533562623767274,5.432746932172056,11.29686007787331,0.02857142857142857,0.0,10.0,0.0
136.14875512133625,440.6944444444445,167.87610942979336,122.61326847222603,282.30345037784804,1.0,0.8571428571428571,168.33333333333337,0.0
55.045871559633014,1090.0000000000002,54.54124562885848,17.329326459950927,30.831080998816027,0.55,0.1,48.33333333333337,0.0
180.26706231454006,332.8395061728395,133.1285578861989,58.97601382102132,224.12663504816132,1.0,0.9868421052631579,106.66666666666669,0.0
173.2911566497043,346.23809523809524,154.40096371581328,84.88441430325817,257.21442272792416,1.0,1.0,148.3333333333333,0.0
117.54462342185461,510.4444444444444,180.90253838755754,93.63653375427101,219.5413689909323,1.0,1.0,163.33333333333331,0.0
78.20573038985438,767.2072072072073,14.755535705017627,4.878570847567883,7.807200583588266,0.0,0.0,10.0,0.0
167.91558342254172,357.32240437158464,127.70044021321489,41.9673616498716,248.47543526216265,1.0,0.9811320754716981,103.33333333333331,0.0
69.03163950143815,869.1666666666667,17.440374613713615,7.828075149764001,12.784399094797292,0.0967741935483871,0.0,10.0,0.0
185.15530455828963,324.0522875816994,152.0410358056043,97.45045540606199,201.377565723216,0.8947368421052632,0.8947368421052632,93.33333333333329,0.0
63.363754889178615,946.9135802469136,69.69023717236641,36.75843062784674,66.31909394904474,0.72,0.56,46.66666666666663,0.0
165.58165864704216,362.35897435897436,116.9596658900063,109.02739646564358,167.12695062293537,0.8448275862068966,0.7241379310344828,56.66666666666674,1.0
56.64088108037235,1059.3055555555557,55.502578907939956,59.163320046586335,65.0834739842503,0.3181818181818182,0.045454545454545456,18.33333333333337,0.0
176.27856365614798,340.3703703703704,170.34420088868902,130.80382973475295,203.1643609882343,0.9090909090909091,0.6363636363636364,101.66666666666667,0.0
125.0,480.0,153.21251278558833,0.0,0.0,0.0,0.0,3.3333333333333712,1.0
174.54545454545453,343.75,134.33206678476537,90.94387688876725,145.849342306851,0.9310344827586207,0.6896551724137931,73.33333333333337,0.0
72.09612817089452,832.2222222222223,202.16116294300727,23.33333333333337,35.43381937578225,0.5,0.5,54.99999999999994,0.0
69.54601904236235,862.7380952380953,65.41111484738838,42.66124965612496,79.0358568414784,0.84,0.6,38.333333333333314,1.0
171.31203263086334,350.2380952380953,133.25273924766725,63.88990554369245,236.9529518467514,1.0,1.0,143.3333333333333,0.0
164.21052631578948,365.38461538461536,150.6200203576682,86.29684271008063,243.83699776998873,1.0,1.0,166.66666666666669,0.0
163.74528511204792,366.4227642276423,115.67028705915882,75.6075545241194,199.02325595330916,1.0,1.0,63.333333333333314,0.0
150.4675545480306,398.7570621468927,197.12328329112847,121.5333422683889,355.96473595875665,0.9803921568627451,0.9607843137254902,140.0,0.0
174.09326424870466,344.64285714285717,185.47737483575648,141.1259057083523,310.4496937438963,0.9333333333333333,0.9333333333333333,108.33333333333331,0.0
127.60929499803075,470.1851851851851,166.222143823841,78.31052150112257,321.48371308322567,1.0,0.98,33.333333333333314,1.0
95.01187648456057,631.5,27.748373325696445,7.157832625958392,9.781564923143893,0.027777777777777776,0.0,10.0,0.0
185.86956521739125,322.80701754385973,169.65024159479182,93.60573755338038,255.36327435881014,0.9787234042553191,0.9574468085106383,173.33333333333331,0.0
72.77347811019983,824.4761904761906,21.26093156200719,9.331767870031994,20.48433164975745,0.4117647058823529,0.0,13.333333333333371,0.0
82.54938852304798,726.8376068376068,43.78755184794962,17.524550777782157,29.745509268416075,0.47368421052631576,0.13157894736842105,30.0,0.0
142.06484641638227,422.3423423423423,149.5074292144348,78.62055641802567,266.4319955081459,0.9629629629629629,0.9259259259259259,60.0,0.0
206.5997130559541,290.41666666666663,181.41180517142635,141.27789793327352,312.13601024055026,1.0,0.95,185.0,1.0
113.29661683713613,529.5833333333333,156.72372631126686,127.95398478446154,245.91100467897365,0.75,0.75,120.0,0.0
155.36374845869298,386.19047619047615,212.2848383839735,126.85171668011178,237.77518170960778,1.0,0.6666666666666666,226.66666666666674,0.0
58.158319870759286,1031.6666666666667,69.43555498659386,75.02666192761082,97.54201373994925,0.65,0.25,33.33333333333326,0.0
50.45942999532783,1189.0740740740741,203.6179112266178,155.89334294638755,244.32304434907488,0.9375,0.8125,163.33333333333343,1.0
73.64975450081832,814.6666666666667,54.190727256929485,25.436501541131264,38.41559026954518,0.5151515151515151,0.15151515151515152,40.0,0.0
96.9875091844232,618.6363636363637,12.417773630098692,5.506892429878413,11.273875598156554,0.0,0.0,6.6666666666667425,0.0
68.33520809898764,878.0246913580246,19.37839064736012,7.746713759657956,16.513182164113157,0.20833333333333334,0.0,13.333333333333258,0.0
164.10602735100454,365.6172839506173,135.59778345614572,80.60932231411171,251.87077815596012,0.9782608695652174,0.9782608695652174,88.33333333333333,0.0
125.70668440305954,477.30158730158723,179.39232831366544,113.25291264343811,233.32857137997954,1.0,0.9,103.33333333333337,1.0
68.82352941176471,871.7948717948717,75.50531067092882,34.64404768365819,65.67744338848999,0.8695652173913043,0.43478260869565216,48.333333333333314,0.0
69.71340046475602,860.6666666666665,25.26012814840957,17.52225665997534,36.81787005729086,0.6785714285714286,0.21428571428571427,20.0,0.0
203.8938053097345,294.27083333333337,158.03532124312167,141.61919090786768,248.79152361409385,0.9423076923076923,0.9230769230769231,131.66666666666663,0.0
83.99852634164313,714.2982456140351,5.4023979263729105,2.811619195374274,4.026936331284141,0.0,0.0,3.3333333333332575,0.0
146.72835426305352,408.91891891891896,176.03243977257353,119.4432800530223,245.03380131322336,0.8888888888888888,0.8518518518518519,146.66666666666669,0.0
69.47032206547779,863.6781609195401,21.340961775218705,11.46653746697237,20.230157173370095,0.25,0.0,13.333333333333258,0.0
153.84615384615384,390.0,143.10613222138693,112.48832913711135,248.73187141910287,0.8947368421052632,0.8157894736842105,36.66666666666666,1.0
200.05421523448092,299.91869918699183,149.98913746554274,94.05284748049444,235.2942296053958,0.9629629629629629,0.8518518518518519,103.33333333333331,0.0
97.48057452319284,615.5072463768116,44.3156082649874,36.150495934221624,38.30038109365481,0.045454545454545456,0.045454545454545456,13.333333333333314,0.0
60.21455761910255,996.4367816091954,61.7927014902088,26.53240007930408,53.68189668543794,0.7142857142857143,0.4642857142857143,46.66666666666674,0.0
109.2032967032967,549.433962264151,129.36181986914076,108.25150528187699,172.69173662175007,0.8846153846153846,0.7115384615384616,90.0,1.0
56.63675562288779,1059.3827160493825,101.01964539020611,47.60486193325656,84.75958962965801,0.8461538461538461,0.5384615384615384,66.66666666666652,0.0
65.7631113730112,912.3655913978495,59.17711431844959,74.08045342900456,115.45561917897284,0.7,0.5333333333333333,40.0,0.0
194.76597886260694,308.06201550387595,172.55674654849133,150.80559867889824,285.27041814659657,0.9354838709677419,0.8709677419354839,130.0,0.0
76.50892604137151,784.2222222222221,25.50139187680392,3.1088091417902883,5.1473999743294145,0.0,0.0,6.6666666666667425,0.0
76.39366827253957,785.4054054054054,41.49135263104788,10.368303365432572,17.85573186665355,0.2777777777777778,0.0,23.33333333333337,0.0
64.23982869379014,934.0000000000001,7.669081745216622,5.8163016668124365,12.295953651119394,0.03571428571428571,0.0,5.0,0.0
79.17583053594166,757.8070175438596,26.746331833422545,13.936328364217824,26.94672755876168,0.5945945945945946,0.02702702702702703,23.333333333333258,0.0
95.35918626827718,629.1999999999999,71.08855197725033,8.287477766480372,12.744954391203699,0.14285714285714285,0.0,16.666666666666515,0.0
62.87787182587666,954.2307692307693,45.91480118419716,37.77580087986358,46.66149039615365,0.43478260869565216,0.08695652173913043,13.333333333333314,0.0
68.69355043887546,873.4444444444445,11.13830006756245,6.809799192459128,13.261299671054756,0.034482758620689655,0.0,10.0,0.0
217.42881794650563,275.9523809523809,171.1071722608172,144.45145198942117,240.2835319171797,0.9302325581395349,0.8604651162790697,131.66666666666663,0.0
63.620892787014,943.0864197530865,45.793649944590314,54.70307730527295,62.32531142677464,0.24,0.12,20.0,0.0
91.08683151236342,658.7121212121212,57.845212774740524,50.80483187306245,60.806381414057476,0.3023255813953488,0.23255813953488372,6.666666666666515,0.0
197.01492537313428,304.5454545454546,140.75988624953467,130.89959103106003,227.8756564769805,0.9166666666666666,0.7916666666666666,106.66666666666663,0.0
116.77479147358667,513.8095238095237,82.07485107594361,70.94855156870342,109.95315807059373,0.7818181818181819,0.6,48.333333333333314,1.0
76.53413008503793,783.9639639639639,51.84776652466621,11.424590233471973,21.444732295131974,0.3888888888888889,0.0,40.0,0.0
86.70520231213872,692.0,16.275407487644955,8.333333333333314,26.35231383473654,0.5,0.0,16.666666666666742,0.0
177.1528998242531,338.69047619047615,139.96977929412571,179.60807812677876,248.37546249654045,0.8666666666666667,0.5333333333333333,31.666666666666686,0.0
63.946825578730234,938.2795698924731,34.999958707010336,17.547466490833212,25.217571769025003,0.3333333333333333,0.06666666666666667,10.0,0.0
74.6474979264584,803.7777777777777,9.417608933518702,6.453874365918949,12.001983962979573,0.0,0.0,6.666666666666629,0.0
163.74663072776283,366.4197530864197,192.10535073926255,148.90836921457884,325.6476703874268,0.9411764705882353,0.8823529411764706,176.66666666666669,0.0
153.80631796996377,390.10101010101005,187.89725118358356,201.4188278523151,326.3766828841098,0.9565217391304348,0.9565217391304348,123.33333333333334,0.0
153.26395458845792,391.4814814814814,199.0825321200634,97.0548621064571,352.48235349278053,1.0,1.0,200.0,0.0
79.36507936507937,756.0,44.97477247002101,35.66100066847068,56.903841153714204,0.696969696969697,0.30303030303030304,39.999999999999886,0.0
55.73394495412844,1076.5432098765432,36.18063371975898,23.83132982848043,40.87190747338351,0.5384615384615384,0.3076923076923077,26.666666666666515,0.0
168.11955168119553,356.88888888888886,159.32480993783858,96.30385719387917,176.4426993213118,0.9411764705882353,0.7647058823529411,160.0,1.0
80.03952569169961,749.6296296296296,16.992695921414025,4.6305698213878665,7.281199970875202,0.02857142857142857,0.0,3.333333333333485,0.0
69.3975903614458,864.5833333333333,13.863170633011766,7.189038559331956,10.177633781517262,0.03225806451612903,0.0,5.0,0.0
165.71236106433142,362.0731707317073,130.32130425422002,59.26400301086102,242.49729539028868,0.9876543209876543,0.9629629629629629,48.33333333333336,0.0
75.30529172320216,796.7567567567569,25.154017899898236,8.852161779790459,16.158932858054435,0.1388888888888889,0.0,10.0,0.0
51.269878946119164,1170.2777777777776,58.9406219307215,43.93241070980564,58.63998075541266,0.5652173913043478,0.2608695652173913,33.33333333333326,0.0
99.68847352024922,601.875,17.910609441209854,7.175376808652332,11.21808408900643,0.06521739130434782,0.0,13.333333333333258,0.0
152.60703688003392,393.16666666666663,210.9067066000721,150.13391370338599,361.87270116969563,0.8888888888888888,0.8888888888888888,226.66666666666669,0.0
108.21643286573146,554.4444444444445,140.6422657439087,0.0,299.99999999999994,1.0,1.0,3.3333333333333712,0.0
55.900621118012424,1073.3333333333333,0.0,0.0,0.0,0.0,0.0,0.0,0.0
62.3076923076923,962.962962962963,17.831708321793666,11.348869731451659,19.741924671712987,0.3076923076923077,0.0,13.333333333333258,0.0
100.0,600.0,0.0,0.0,0.0,0.0,0.0,0.0,0.0
91.92793304014754,652.6851851851852,136.3384030671169,112.70468975224314,126.7826294310385,0.3225806451612903,0.1935483870967742,6.6666666666667425,0.0
158.79017013232516,377.85714285714283,181.04900302569644,146.8150146479477,226.42844624702363,0.8571428571428571,0.8571428571428571,178.33333333333331,0.0
104.22195416164053,575.6944444444445,100.14563084100678,110.88579585421307,133.63507523600728,0.4375,0.3125,13.333333333333314,0.0
80.0,750.0,0.0,0.0,0.0,0.0,0.0,0.0,0.0
174.84904174323972,343.1531531531531,164.02216569234164,51.06259019364324,273.012175823988,1.0,1.0,166.66666666666663,0.0
335.0449293966624,179.08045977011494,132.73976081392507,129.52305672050142,178.3909564224973,0.8,0.75,56.66666666666667,0.0
84.85007201780805,707.1296296296296,54.354533342901156,5.6739765964151445,8.518770125108704,0.03125,0.0,6.666666666666629,0.0
64.89409643983777,924.5833333333334,59.81307688680351,39.69854028868249,63.92760242066397,0.7419354838709677,0.41935483870967744,43.33333333333326,0.0
152.09790209790208,394.4827586206897,169.28353838870896,66.04857504986742,322.7562624307569,1.0,1.0,100.0,0.0
63.036601897876196,951.8279569892471,11.541997791994582,7.400367024598541,12.26255969895234,0.0,0.0,6.6666666666667425,0.0
177.00915564598168,338.9655172413793,174.9857212527839,132.96749117777432,240.00408493255634,1.0,0.8235294117647058,156.66666666666669,0.0
74.26508509541002,807.9166666666666,30.649791552671655,10.95879212556599,17.616606585441104,0.20689655172413793,0.0,18.33333333333337,0.0
85.64631245043617,700.5555555555555,14.582671942674098,3.3333333333333144,16.996731711975965,0.0,0.0,10.000000000000114,0.0
77.65314926660916,772.6666666666665,17.048949136725895,8.470275209825077,14.835277890402656,0.19230769230769232,0.0,10.0,0.0
201.19876883201036,298.21256038647346,174.8581939469376,143.89299580628975,297.2089401782251,0.967741935483871,0.8870967741935484,70.0,0.0
149.69656102494943,400.81081081081084,186.2775955015231,97.97328938082444,348.4994287683294,1.0,0.9666666666666667,183.33333333333337,0.0
56.483245545220214,1062.2619047619048,44.792764185256644,15.325558156723663,29.37623125867175,0.5555555555555556,0.037037037037037035,16.666666666666742,0.0
197.57759273277816,303.6781609195403,191.64911429392154,138.79842539999697,333.39131440173804,1.0,0.9791666666666666,158.33333333333334,0.0
161.9631901840491,370.45454545454544,151.97120758184525,118.32257384574375,201.0136350635983,0.8333333333333334,0.8333333333333334,109.99999999999999,1.0
96.56652360515022,621.3333333333333,199.83993594874875,131.66666666666663,372.38719395572963,1.0,1.0,26.666666666666742,0.0
151.55709342560553,395.8904109589041,175.63931540681287,43.44711932499789,348.5058495355477,1.0,1.0,10.0,0.0
192.68045710979317,311.39639639639637,183.37837837837841,119.32928461831361,290.51761236074384,0.9710144927536232,0.9565217391304348,115.0,0.0
95.99999999999999,625.0000000000001,14.870617529224628,4.378523468483447,7.131914015947198,0.0,0.0,8.333333333333371,0.0
57.365439093484426,1045.9259259259259,30.783103341007607,21.521666223326434,42.73752129564518,0.7307692307692307,0.23076923076923078,26.666666666666515,0.0
82.52027741859646,727.094017094017,5.806935983406162,2.042483612388218,4.064051736446838,0.0,0.0,3.3333333333333712,0.0
56.59692828637078,1060.128205128205,39.0428295312222,33.42760004015311,46.183210032314655,0.44,0.16,26.666666666666742,0.0
87.3015873015873,687.2727272727273,48.67576049984993,20.808725062111098,22.03271687801621,0.034482758620689655,0.034482758620689655,3.3333333333333712,0.0
79.64601769911505,753.3333333333333,0.0,0.0,0.0,0.0,0.0,0.0,0.0
209.18367346938777,286.8292682926829,200.2951091322078,138.8488831272294,380.6702990032317,1.0,1.0,150.0,0.0
131.91645291315498,454.83333333333337,176.27464366720474,140.62320797548034,289.12154855920005,1.0,1.0,155.0,0.0
69.30917327293318,865.686274509804,13.370766369593966,4.9319416629226955,7.892373679037385,0.0,0.0,8.333333333333371,0.0
62.255014987318425,963.7777777777777,23.597447026592498,10.769078324479747,19.554423513036706,0.27586206896551724,0.0,13.333333333333258,0.0
136.4161849710983,439.8305084745762,93.55185018882712,89.36736848323143,123.85422593131713,0.8235294117647058,0.5294117647058824,43.33333333333337,1.0
76.66628295153679,782.6126126126126,23.392911520169342,7.01934911531997,14.174834246858977,0.08333333333333333,0.0,19.999999999999886,0.0
58.56324830817283,1024.5333333333333,22.99526521313076,14.76839327867479,23.260756693030583,0.2608695652173913,0.0,20.0,0.0
143.83561643835617,417.14285714285717,188.8766169149415,47.55844077095283,369.4788179989363,1.0,1.0,180.0,0.0
204.96894409937886,292.72727272727275,172.44186947231648,121.32419430018393,246.97079512244122,0.9534883720930233,0.8604651162790697,140.0,0.0
77.9874213836478,769.3548387096774,24.028348771549965,8.30931934341507,12.223963651627955,0.10344827586206896,0.0,16.666666666666742,0.0
80.53229322014454,745.0427350427351,87.04019373090384,72.36395520510924,145.80388173784868,0.8421052631578947,0.7368421052631579,30.0,1.0
194.45255474452551,308.5585585585586,135.88004898452297,108.26828590189902,219.07161266570702,0.9701492537313433,0.8805970149253731,54.999999999999986,1.0
129.49640287769785,463.3333333333333,0.0,0.0,0.0,0.0,0.0,0.0,0.0
74.17900837089503,808.8541666666667,35.15451384601983,28.546041228357247,33.71050974745042,0.20689655172413793,0.034482758620689655,16.66666666666663,0.0
73.8650936137471,812.2916666666667,150.5255550009145,135.63153608304714,210.68582894565674,0.9333333333333333,0.8333333333333334,101.66666666666669,1.0
215.04290762241288,279.0140845070423,142.61737813653912,128.62687215183794,216.2775662501371,0.9193548387096774,0.8064516129032258,110.0,0.0
82.0476858345021,731.2820512820513,136.2974277935672,104.600840319901,115.56117845069028,0.2631578947368421,0.10526315789473684,16.666666666666742,0.0
114.64968152866241,523.3333333333334,173.2050807568877,80.8443100603611,312.8483243907086,1.0,1.0,104.99999999999997,0.0
175.1249013936366,342.6126126126126,142.0551327542335,125.79271579245393,211.28160756552674,0.8888888888888888,0.7407407407407407,106.66666666666669,0.0
60.6060606060606,990.0000000000001,22.271770159368703,13.639600932971987,24.720661623652223,0.37037037037037035,0.07407407407407407,13.333333333333371,0.0
64.77826793591827,926.236559139785,31.61985147838806,12.189856135024423,28.113526466282575,0.5666666666666667,0.0,20.0,0.0
218.77619446772843,274.2528735632184,131.0724889427336,134.40314122287307,213.83438965430796,0.7368421052631579,0.6842105263157895,33.33333333333334,1.0
137.4368612709973,436.5641025641026,65.37457942083466,57.96619277693725,84.73009331118459,0.6825396825396826,0.3968253968253968,36.666666666666686,1.0
95.53398058252428,628.0487804878048,7.720581361631437,3.6601133412324662,5.645471196387401,0.0,0.0,3.333333333333485,0.0
76.42357642357643,785.0980392156862,47.384088323198576,16.086314472711503,27.597394109157495,0.3333333333333333,0.09090909090909091,20.000000000000057,0.0
81.92321157661337,732.3931623931625,81.25072418857177,39.95390156841539,57.600661952011805,0.631578947368421,0.23684210526315788,50.0,0.0
158.28524319868094,379.0625,141.49066119310174,51.47032586301008,242.68749910578873,1.0,1.0,106.66666666666663,0.0
61.05144149236859,982.7777777777775,101.0356861536715,63.26581293457748,94.09785401521226,0.7241379310344828,0.5517241379310345,65.00000000000011,0.0
152.073732718894,394.54545454545456,160.27715511701228,59.454791803438965,290.87788076866184,1.0,1.0,76.66666666666669,0.0
66.53523903400689,901.7777777777778,74.33026069052217,27.3244211328509,49.46628731011569,0.7037037037037037,0.2962962962962963,73.33333333333331,0.0
70.84870848708488,846.875,29.142102751479307,25.959670599408316,34.547769639974945,0.3225806451612903,0.12903225806451613,15.0,0.0
173.47725520431763,345.86666666666673,176.5755236592987,110.50287034164089,288.2156379661832,1.0,0.9285714285714286,146.66666666666663,0.0
147.16981132075472,407.6923076923077,176.98512475706212,139.07669058817734,291.7077572466322,0.8888888888888888,0.8888888888888888,199.99999999999994,0.0
244.15341440598692,245.7471264367816,46.944138578900855,66.90697429922042,124.03703150747032,0.6666666666666666,0.6666666666666666,3.3333333333333144,0.0
152.6636628677445,393.0208333333333,177.7372424219246,158.58497546881435,270.2539957562556,1.0,0.7,56.666666666666686,0.0
159.39652345031155,376.4197530864198,172.05350379892403,130.9226517480483,321.2245090045048,1.0,0.9333333333333333,136.66666666666669,1.0
129.55122777307366,463.1372549019608,145.9943171435658,131.76578547643626,220.3935873235275,0.9,0.9,106.66666666666669,0.0
81.9672131147541,732.0,44.08829524689946,18.202519776215627,27.106416855752716,0.38461538461538464,0.10256410256410256,23.333333333333258,0.0
100.2227171492205,598.6666666666666,174.63103962354458,0.0,0.0,0.0,0.0,203.33333333333337,1.0
168.75,355.55555555555554,143.0186036418141,163.17707366420848,295.3582704725025,0.8571428571428571,0.8571428571428571,3.3333333333333712,0.0
68.81096757184287,871.9540229885058,7.505667916006676,5.86647129408234,9.64386412317895,0.0,0.0,3.333333333333485,0.0
50.60159676149781,1185.7333333333333,11.795290962451457,10.620233135475495,18.040592090143917,0.2916666666666667,0.0,6.666666666666515,0.0
69.06173700732474,868.7878787878788,77.5761521454612,74.7105254964524,111.44055103852729,0.7096774193548387,0.4838709677419355,36.66666666666663,1.0
106.218792555606,564.8717948717948,200.4764213798148,165.6683061249827,257.5705584739696,1.0,0.6666666666666666,200.0,0.0
73.65310297794952,814.6296296296298,60.242707554052345,37.35519282293967,56.92378641936482,0.6285714285714286,0.3142857142857143,30.000000000000057,0.0
86.71713695801789,691.9047619047619,20.25162946142314,7.317976457343492,12.655536402144978,0.07317073170731707,0.0,16.666666666666742,0.0
153.07653826913457,391.96078431372547,160.96546466578206,111.94046036472545,212.53496444376185,0.9,0.9,126.66666666666669,0.0
57.12942282825908,1050.2469135802469,32.112532660139074,16.919191473152406,37.61023683161161,0.7692307692307693,0.15384615384615385,23.333333333333485,0.0
176.6437684003925,339.66666666666674,117.53281653633151,35.81563904218379,218.09427115610148,1.0,1.0,83.33333333333329,0.0
172.34395139016752,348.1410256410257,134.3477651176619,107.8911598494308,240.5871371096877,0.9302325581395349,0.9302325581395349,23.333333333333286,1.0
161.73717708723325,370.97222222222223,168.34840187414983,127.42056348957182,258.2849417041402,1.0,0.9,106.6666666666667,0.0
221.406991799741,270.99415204678365,156.9270759884255,148.98240222536185,263.17417834610626,0.9583333333333334,0.9375,103.33333333333334,0.0
69.92837198008984,858.0208333333334,59.400122609067246,25.977197978512127,42.26021682298762,0.6,0.23333333333333334,35.0,0.0
79.06626506024097,758.8571428571429,51.225879230598345,15.042706948672462,24.384683606985643,0.2727272727272727,0.030303030303030304,33.33333333333337,0.0
77.65793528505394,772.6190476190475,38.49713597734316,33.46459416661442,40.52564672313125,0.2857142857142857,0.09523809523809523,28.333333333333258,0.0
129.52646239554318,463.2258064516129,172.71702647298162,150.58253561013873,287.95000378253616,1.0,0.8947368421052632,106.66666666666657,1.0
68.9199894375495,870.5747126436783,18.069024012072244,11.52777282700717,17.722938923964172,0.2692307692307692,0.0,13.333333333333258,0.0
167.18266253869967,358.8888888888889,186.58397639377716,93.33333333333334,144.26056672254938,0.5,0.5,145.0,0.0
199.19517102615697,301.2121212121212,168.64246678674374,163.50637092582457,274.37403505271976,0.9,0.85,106.66666666666669,0.0
132.35294117647058,453.3333333333333,156.85272639574288,25.28845928164675,386.3839962946091,1.0,1.0,65.00000000000003,0.0
96.5500426673168,621.4393939393941,29.63922570923187,12.117932714488237,23.99845674050574,0.42857142857142855,0.023809523809523808,21.666666666666686,0.0
72.9401170643854,822.5925925925926,87.0650073260542,100.92048013489432,134.27524444156217,0.7714285714285715,0.45714285714285713,36.666666666666686,1.0
83.7696335078534,716.25,24.946470469565202,6.277252658796102,10.951850069418409,0.02564102564102564,0.0,16.66666666666663,0.0
167.83216783216787,357.49999999999994,124.67543332675318,55.56036275097465,232.77452465457935,1.0,0.9767441860465116,104.99999999999999,0.0
52.503646086533784,1142.7777777777778,60.573391868617826,34.47996352808586,69.3273408781609,0.8260869565217391,0.6086956521739131,48.33333333333337,0.0
79.92106561420819,750.7407407407408,109.42924629700376,112.2359727549368,188.23251972356283,0.8333333333333334,0.75,78.33333333333331,1.0
76.04660094738189,788.9898989898991,51.84465820929176,67.75965149239164,70.55599299951884,0.06666666666666667,0.06666666666666667,6.666666666666629,0.0
71.73219978746015,836.4444444444445,26.568337230806826,13.137917463717235,22.651605640555314,0.32142857142857145,0.03571428571428571,18.333333333333258,0.0
54.47561401466651,1101.4102564102564,4.729709421973534,4.035398920112433,8.137703743822495,0.0,0.0,3.3333333333332575,0.0
78.30950901180859,766.1904761904761,44.49464285316139,34.72802009635294,41.48238819626889,0.25806451612903225,0.03225806451612903,16.66666666666663,0.0
81.8285137012249,733.2407407407406,72.42487001701947,34.964639876118646,46.48028255794778,0.46875,0.09375,28.333333333333314,0.0
72.24382290229525,830.5208333333333,40.24326526644621,16.767299382813594,29.52430503523528,0.5483870967741935,0.03225806451612903,26.666666666666572,0.0
164.99345264076823,363.6507936507936,187.79112781107443,176.887551771533,255.666809033514,0.8620689655172413,0.6896551724137931,156.66666666666663,0.0
185.4636591478697,323.5135135135135,207.46568289031492,145.39998783557388,375.0460289211496,1.0,1.0,143.33333333333334,0.0
129.49640287769782,463.33333333333337,201.68181761268303,135.4610326183316,359.29199927181895,1.0,0.8333333333333334,171.66666666666666,0.0
89.23350705478582,672.3931623931624,28.424425894557082,26.656859050359387,28.63671993079972,0.027777777777777776,0.027777777777777776,3.3333333333333712,0.0
88.34926375613537,679.1228070175438,49.4571952116426,12.265394787655717,17.977057689583223,0.2,0.0,34.999999999999886,0.0
166.20033575825406,361.01010101010104,170.43119181582003,145.1505504217256,285.9311346401678,0.9523809523809523,0.8571428571428571,133.33333333333337,0.0
71.40357017850893,840.2941176470588,18.495144161503223,14.029135802397304,21.097816122002893,0.30303030303030304,0.030303030303030304,14.999999999999886,0.0
100.73060780351314,595.6481481481482,155.44801728171885,142.32628300258997,185.89498230034195,0.84375,0.46875,73.33333333333326,0.0
209.7516099356026,286.05263157894734,184.38431651657714,154.7097641104501,307.7192082257965,0.96,0.92,158.33333333333331,0.0
159.27348934683897,376.7105263157895,157.6624692711682,42.843142498928664,299.5213899925397,1.0,1.0,125.00000000000001,0.0
68.27358375137649,878.8172043010751,21.428356704075895,5.339117234103985,12.427567921538177,0.06666666666666667,0.0,10.0,0.0
81.01557991921521,740.5982905982908,10.83078325994085,4.868223482635655,7.836039099693796,0.0,0.0,6.666666666666515,0.0
114.85202280749388,522.4113475177305,71.81767737655815,56.99957355220394,102.82570989294011,0.8372093023255814,0.6976744186046512,56.666666666666686,1.0
172.32375979112268,348.18181818181824,129.7267029073015,90.58611873464613,240.36205972051084,0.9722222222222222,0.9027777777777778,26.666666666666657,0.0
69.91888495373016,858.1372549019608,17.361801216580172,9.538905347739842,18.766687299269226,0.3333333333333333,0.0,11.666666666666686,0.0
95.50277918140475,628.2539682539683,67.81252594269844,89.16508971083076,129.2988082628058,0.7272727272727273,0.5454545454545454,26.666666666666742,1.0
143.91776127926897,416.9047619047619,97.71568967709482,55.03628853361714,150.0416608812366,1.0,1.0,38.333333333333314,0.0
95.90699927343184,625.6060606060605,62.05965168537006,5.482513028308111,8.878962711712383,0.0,0.0,49.999999999999886,0.0
53.116147308781876,1129.6,36.65236084559298,16.976290656219472,41.163630117428234,0.7916666666666666,0.16666666666666666,23.333333333333485,0.0
63.67924528301887,942.2222222222222,27.45141611854622,5.3667207034155195,12.685406585123095,0.0,0.0,20.0,0.0
64.91885143570538,924.230769230769,76.49120217723996,63.59579509936952,134.46223481927035,0.9583333333333334,0.7916666666666666,68.33333333333326,0.0
173.48468622831442,345.85185185185185,159.0654117418995,118.99723625402675,257.14729472190777,1.0,0.9032258064516129,130.0,0.0
81.44796380090497,736.6666666666667,0.0,0.0,0.0,0.0,0.0,0.0,0.0
154.05682985279012,389.4666666666667,172.93461834526428,110.40227412295127,194.78518896792392,0.9285714285714286,0.8571428571428571,139.99999999999994,0.0
102.41820768136557,585.8333333333334,142.95249793783483,0.0,89.99999999999994,1.0,1.0,129.99999999999997,0.0
77.9664880884532,769.561403508772,32.5268315029424,18.95963015683036,37.87921375681963,0.7027027027027027,0.16216216216216217,15.0,0.0
188.76193457505082,317.86069651741303,185.55434537820835,128.90823814560778,309.81579003464185,0.9827586206896551,0.9655172413793104,143.33333333333331,0.0
73.50367518375919,816.2857142857143,75.67168612917685,64.51524203790557,101.32939878842436,0.8235294117647058,0.5294117647058824,43.33333333333337,1.0
132.41255066806787,453.12925170068024,117.15138986203101,109.50117663548325,163.45071907500918,0.8809523809523809,0.5476190476190477,49.99999999999994,1.0
168.22429906542055,356.6666666666667,155.85949143365906,132.5745073534124,296.0142639205828,1.0,0.8666666666666667,63.333333333333314,0.0
73.91537225495449,811.7391304347824,118.87503918922181,80.17577568604315,113.91734061953501,0.5555555555555556,0.5555555555555556,10.0,1.0
76.9230769230769,780.0000000000001,60.57284101863697,31.302733284988246,52.33734355949103,0.6388888888888888,0.3055555555555556,33.33333333333337,0.0
75.47649301143584,794.9494949494949,49.18953388529585,43.84822307308092,46.45188669771959,0.03333333333333333,0.03333333333333333,10.0,0.0
78.05724197745013,768.6666666666666,80.39071256474013,22.954447071715318,25.08958308715353,0.07692307692307693,0.038461538461538464,10.0,0.0
62.44218316373728,960.8888888888888,60.97925168286727,28.568248129044225,48.687761134510914,0.6896551724137931,0.2413793103448276,31.666666666666686,0.0
151.57894736842107,395.8333333333333,163.30002494840028,111.10355529864918,256.0295121877771,1.0,1.0,163.33333333333334,1.0
171.10799438990188,350.65573770491795,136.50572914060447,60.861593300055816,248.26737125733467,1.0,1.0,16.666666666666686,0.0
113.68421052631581,527.7777777777777,75.49016778428013,0.0,0.0,0.0,0.0,53.333333333333314,0.0
69.87098983902271,858.7254901960785,7.541376319071424,4.521824098100886,8.308042430294204,0.0,0.0,3.3333333333332575,0.0
70.75144508670519,848.0392156862746,12.501441670035355,5.7139941914064485,12.404517478404948,0.06060606060606061,0.0,10.000000000000057,0.0
155.12630014858843,386.78160919540227,159.90294651899467,106.24466419265559,236.6692748943393,1.0,1.0,113.33333333333331,0.0
68.85833831440526,871.3541666666666,3.8060053971760572,3.700183512299275,6.582805886043822,0.0,0.0,3.3333333333332575,0.0
111.61637040099215,537.5555555555555,199.47882711991218,152.8325154467392,388.0320719848926,1.0,0.9,106.66666666666674,0.0
201.05124835742444,298.4313725490196,159.91671707918496,152.3298525431327,266.8075024924213,1.0,0.8571428571428571,75.0,0.0
115.04938988959907,521.5151515151515,145.30611113111433,64.31174076325414,143.84405135809791,1.0,0.8,126.66666666666669,1.0
215.30128639133383,278.6792452830188,166.6821874818934,121.35244812803187,269.977365306386,0.975,0.95,160.0,0.0
212.13906894519738,282.83333333333337,146.12504158349373,64.90912450838051,238.1817699899712,1.0,1.0,101.66666666666669,1.0
81.5038419319429,736.1616161616163,92.8019549171528,74.59110000225553,85.55607091166162,0.5714285714285714,0.14285714285714285,33.33333333333337,0.0
50.97946660372905,1176.9444444444446,45.368008252947405,30.876708706024612,69.28900478124125,0.8695652173913043,0.6086956521739131,26.66666666666663,0.0
70.89076798331982,846.3725490196078,37.91431384261219,12.261810832722029,22.68953095184682,0.45454545454545453,0.0,16.666666666666515,0.0
74.09101303453008,809.8148148148148,17.158384273923705,4.5135221375515435,8.692269873603532,0.0,0.0,6.666666666666686,0.0
79.9908842297174,750.0854700854702,41.41023435914491,7.93944456069106,13.045130838611453,0.13157894736842105,0.0,16.666666666666742,0.0
176.7478397486253,339.46666666666664,117.09513700880628,60.65116937552875,221.63105649536584,1.0,1.0,110.00000000000004,0.0
185.4567069546265,323.52564102564105,199.85936664703735,155.53718860813197,331.5157764377139,0.975609756097561,0.9024390243902439,141.66666666666669,0.0
65.38767169939834,917.6041666666666,16.58803063707886,12.208918647085813,20.833870960804894,0.3225806451612903,0.0,11.666666666666629,0.0
243.54243542435424,246.36363636363637,172.95240511557424,158.50775393883768,286.90162913944454,0.967741935483871,0.9032258064516129,130.0,0.0
187.84676354029065,319.4092827004219,170.8271920218928,102.78694979879904,270.2223531096569,0.972972972972973,0.9459459459459459,146.66666666666663,0.0
90.19658229474494,665.2136752136753,29.135647698904606,32.556108900748114,34.86481830664769,0.02857142857142857,0.02857142857142857,6.666666666666629,0.0
84.46835298157262,710.3252032520326,144.8554178304118,140.83786974942342,240.136535236843,0.95,0.675,43.33333333333337,1.0
150.96359743040685,397.4468085106383,183.18332065817503,111.1086419478732,323.7378149668435,0.9166666666666666,0.9166666666666666,156.66666666666669,0.0
152.4390243902439,393.6,146.53808505085075,37.121490164850414,286.0227421185403,1.0,1.0,123.33333333333334,0.0
74.20130539333562,808.6111111111112,49.56835285682056,32.30158340158317,48.225660033993165,0.5142857142857142,0.2571428571428571,41.66666666666663,0.0
156.39620371608078,383.6410256410256,180.1316926389278,116.98859024244021,316.6792395164873,1.0,0.9166666666666666,113.33333333333334,0.0
70.61988566304225,849.6190476190477,22.92529522160473,7.759356446042901,14.257207786106274,0.14705882352941177,0.0,20.0,0.0
90.87779690189326,660.2272727272729,23.840777892966944,7.516582233505362,14.502962363347066,0.13953488372093023,0.0,15.000000000000114,0.0
102.6615969581749,584.4444444444445,175.99102109531853,0.0,426.6666666666667,1.0,1.0,160.0,0.0
71.14624505928855,843.3333333333333,14.752866122334652,2.9379877923735442,5.4122942725732734,0.0,0.0,8.333333333333371,0.0
188.77236273904998,317.84313725490193,177.46437677378756,158.54243366000915,279.4970815923104,0.9459459459459459,0.8378378378378378,123.33333333333331,0.0
78.78539187525647,761.5625,16.770186322923067,16.199844554180284,20.643761153238817,0.12903225806451613,0.03225806451612903,5.0,0.0
61.42568250758342,976.7901234567902,72.04526173069846,18.946618668626837,27.54948926884779,0.34615384615384615,0.11538461538461539,56.66666666666674,0.0
68.23351023502653,879.3333333333334,115.15014353250092,0.0,46.66666666666663,1.0,0.0,36.66666666666663,0.0
74.37085263553274,806.7676767676767,41.5886934946161,11.333356648223887,21.602468994692877,0.3103448275862069,0.0,23.33333333333337,0.0
61.60018881283928,974.0229885057471,36.12854137908066,12.095495872768641,19.54847454772001,0.32142857142857145,0.03571428571428571,19.999999999999886,0.0
161.57205240174673,371.35135135135135,159.9483014439681,117.44072602322669,264.7777652244708,0.9615384615384616,0.8846153846153846,156.66666666666669,0.0
162.5615763546798,369.09090909090907,197.62269381140052,164.94308782796026,338.8542787426805,1.0,1.0,93.33333333333331,0.0
170.23959646910467,352.44444444444446,170.47413909084696,152.8504671439458,275.76157173261913,0.8571428571428571,0.8571428571428571,116.66666666666669,1.0
171.0794297352342,350.7142857142857,131.83490500194077,44.61957640185161,255.88809049941685,1.0,1.0,78.33333333333331,0.0
67.13286713286713,893.75,27.20485557150906,10.327955589886445,14.375905768565216,0.2,0.0,11.666666666666686,0.0
52.837573385518596,1135.5555555555554,35.59893187466843,23.563095970254466,36.02200079205486,0.34782608695652173,0.17391304347826086,21.66666666666663,0.0
152.92353823088453,392.35294117647067,190.74592040586398,115.04754451964631,338.87682127876496,0.9583333333333334,0.9583333333333334,100.0,0.0
225.8762440501947,265.632183908046,157.43417635232922,145.31515081214192,275.94534482997415,1.0,0.9375,116.66666666666666,0.0
179.00552486187843,335.1851851851852,170.97116290753058,99.56696363208826,264.97379325342933,1.0,1.0,10.0,0.0
59.05788610264823,1015.952380952381,62.07622773563662,44.99081177682566,63.5894755378353,0.5925925925925926,0.3333333333333333,33.33333333333337,0.0
173.01293900184845,346.79487179487177,142.05446400212944,76.65566053120217,271.5566606493384,1.0,0.9743589743589743,129.99999999999997,0.0
66.08242539081004,907.9569892473119,15.581383509891609,5.747785402834476,9.850737893022893,0.06666666666666667,0.0,13.333333333333371,0.0
73.16198445905559,820.0980392156863,58.468947649949875,47.107179617631296,51.136391694717325,0.125,0.03125,29.999999999999886,0.0
125.1336898395722,479.48717948717945,204.70051567518274,174.74535043886002,317.08086946042295,1.0,0.75,200.0,0.0
189.91793669402114,315.92592592592587,192.67786573742796,175.92738214099094,310.6438034945694,1.0,0.9615384615384616,83.33333333333334,0.0
58.02440709187199,1034.0476190476188,15.4908355615363,5.143868310123358,9.42809041582063,0.0,0.0,10.0,0.0
91.46552719713593,655.9848484848485,109.92325041842967,88.70459682827965,157.9569169010943,0.9302325581395349,0.8372093023255814,78.33333333333326,1.0
162.84329563812602,368.4523809523809,194.8737526668434,153.08816466066065,292.47981886695095,0.8823529411764706,0.8823529411764706,173.33333333333331,0.0
163.1419939577039,367.7777777777778,142.63333438436266,128.12147014107788,225.85639488646564,1.0,0.8,73.33333333333331,0.0
80.11548177553229,748.918918918919,30.26463911586005,8.79727090117396,14.39092649665402,0.1388888888888889,0.0,20.0,0.0
898.876404494382,66.75,53.93147658526203,61.0766362367653,92.17482753121568,0.6842105263157895,0.5,16.666666666666664,0.0
167.54716981132077,358.10810810810807,167.58582676842926,91.06224665820578,299.53469205758415,1.0,1.0,126.66666666666669,0.0
180.15665796344646,333.04347826086956,184.17832422538694,130.53309499467517,322.58935024096644,1.0,0.875,173.33333333333337,0.0
81.61841646320195,735.1282051282051,17.716445815512518,9.514208324881572,16.095475373078624,0.23684210526315788,0.0,10.0,0.0
123.11901504787963,487.3333333333333,50.46744458522704,53.67719652340085,66.39295663967695,0.5,0.16666666666666666,13.333333333333314,1.0
89.45686900958466,670.7142857142857,48.673057387995335,46.26733909213569,50.14423640304482,0.2,0.025,10.0,0.0
173.2546201232033,346.3111111111111,130.85425687844426,87.89442108497727,239.74458239704273,0.9859154929577465,0.9154929577464789,30.000000000000057,0.0
166.5920286609942,360.1612903225806,136.47958270156167,60.57978383295909,261.02643704915107,1.0,1.0,126.66666666666669,0.0
76.02739726027397,789.1891891891892,42.66219997315883,11.095668280700187,18.80701208867863,0.2777777777777778,0.0,26.666666666666742,0.0
81.25000000000003,738.4615384615382,30.267997201882945,14.124713830084469,15.332570537853263,0.02631578947368421,0.02631578947368421,3.3333333333332575,0.0
185.69753810082065,323.10606060606057,175.70550103676942,129.78614889287857,308.6169866427388,0.9393939393939394,0.9393939393939394,126.66666666666663,0.0
77.8688524590164,770.5263157894736,15.737731986027077,7.515911212473596,10.794281658198317,0.02702702702702703,0.0,10.0,0.0
72.52215954875102,827.3333333333333,21.67289287830044,8.362693377308304,15.738882371396443,0.20588235294117646,0.0,10.0,0.0
92.60317823253686,647.925925925926,33.06774855524688,16.520015964168497,54.96555395165342,1.0,0.4772727272727273,20.0,0.0
196.15384615384616,305.88235294117646,141.745404086513,119.03266442429624,226.8310021205991,0.9512195121951219,0.8780487804878049,90.0,0.0
98.40546697038724,609.7222222222223,16.127864852216433,10.986271160698589,16.416563163442305,0.19148936170212766,0.0,8.333333333333371,0.0
224.58410351201476,267.1604938271605,193.53906402444917,191.4781681782257,299.2722654856091,0.9375,0.75,120.0,0.0
181.88153310104528,329.8850574712644,112.45824912897703,30.539782655086373,220.72759645007085,1.0,0.9883720930232558,43.33333333333334,0.0
174.03314917127068,344.7619047619048,173.6431036282228,125.93266346215982,295.1987362893175,0.9838709677419355,0.967741935483871,94.99999999999996,0.0
146.34146341463418,409.99999999999994,214.66538159107037,135.77836665214124,382.29302009894747,1.0,1.0,136.66666666666669,0.0
170.55579126007638,351.7910447761194,173.80564082376284,114.82027981771519,289.9134498934445,1.0,0.9655172413793104,163.33333333333331,0.0
88.75739644970413,676.0000000000001,131.00296858383697,0.0,253.33333333333331,1.0,1.0,40.0,0.0
131.0126582278481,457.97101449275357,172.4804522437751,124.2100761690236,307.0309004908286,1.0,0.9411764705882353,110.0,0.0
165.80930733341307,361.8614718614719,166.9681200239349,78.61081822384818,299.77018224326804,1.0,1.0,110.00000000000003,0.0
130.87736306349976,458.44444444444446,188.3490324495758,138.88444437333106,288.90598240027265,0.8571428571428571,0.8571428571428571,160.00000000000006,0.0
104.67652047492125,573.1944444444445,107.92006286662273,74.3385181300904,124.27009115453144,1.0,0.8125,58.33333333333337,1.0
150.71770334928232,398.0952380952381,183.8076733190839,161.25753643025666,369.9155308986094,1.0,0.875,148.33333333333331,0.0
82.17301985847979,730.1666666666667,30.658966424558773,14.32892663989428,25.514645813672413,0.41025641025641024,0.02564102564102564,16.666666666666515,0.0
63.0767433711015,951.2222222222223,17.836361805848636,12.079360602684739,19.57400731715679,0.41379310344827586,0.034482758620689655,13.333333333333371,0.0
60.074165636588376,998.7654320987655,96.35389224061565,56.00275305527298,61.972560787805854,0.19230769230769232,0.038461538461538464,40.0,0.0
70.34482758620689,852.9411764705883,23.31602587638392,10.56702774191679,18.721780110476946,0.30303030303030304,0.0,16.66666666666663,0.0
60.638297872340424,989.4736842105264,83.16307630610835,31.08761665514182,45.92955268151228,0.5714285714285714,0.21428571428571427,26.66666666666663,0.0
224.48460167981676,267.27891156462584,156.2190355268743,114.91374919080144,212.38431854878573,0.9444444444444444,0.8055555555555556,120.00000000000001,1.0
123.13432835820898,487.2727272727272,229.14120820272024,189.3870524119898,377.3739671878693,0.9230769230769231,0.8461538461538461,223.33333333333326,0.0
137.56866491521376,436.1458333333333,193.00728500751524,30.26089192704621,385.34303313750706,1.0,1.0,140.0,0.0
166.4990951136135,360.36231884057975,159.11777951842524,123.98209151229528,258.4449474253138,0.9411764705882353,0.8235294117647058,38.333333333333385,0.0
137.9716981132075,434.871794871795,171.9253236052747,93.82252750095077,334.7503215499244,1.0,1.0,103.33333333333326,0.0
56.928663464917406,1053.9506172839508,61.00014866767985,34.889701284946476,49.51042366292225,0.5,0.3076923076923077,50.0,0.0
76.84319833852544,780.8108108108108,38.46456506980486,14.256854054003167,25.62791687704621,0.4166666666666667,0.05555555555555555,26.66666666666663,0.0
77.10118082889558,778.1981981981982,81.71801876788317,73.36325614732299,138.4437310486346,0.8888888888888888,0.8333333333333334,69.99999999999989,1.0
203.3898305084746,294.99999999999994,107.55028355175774,93.08538493710431,164.25589791541734,1.0,0.8,64.99999999999997,0.0
131.06796116504856,457.77777777777777,196.3996932435813,158.07049876202447,318.9605029923545,1.0,0.8888888888888888,74.99999999999997,0.0
103.80337772895784,578.015873015873,141.33351962365967,120.83224280719094,212.73490628215484,0.9210526315789473,0.7368421052631579,93.33333333333337,1.0
76.4638346727899,784.6846846846846,13.207956912462919,5.653458341656931,11.166528467912096,0.05555555555555555,0.0,6.6666666666667425,0.0
215.4882154882155,278.4375,173.1288544998108,129.17019833779904,213.27558095091828,0.8695652173913043,0.782608695652174,174.99999999999994,0.0
175.14374170720922,342.57575757575756,158.40619849636306,83.56950160124542,275.7373269006713,1.0,1.0,136.66666666666666,0.0
124.6810061975939,481.2280701754385,197.92552951920342,137.58376695414665,369.8743985558756,1.0,1.0,173.33333333333331,1.0
176.278563656148,340.3703703703703,135.14132795868844,69.11254017815105,255.0962055266093,0.9814814814814815,0.9814814814814815,120.0,0.0
74.32897453544392,807.2222222222222,10.04618962223618,4.136009666782567,6.90065559342355,0.0,0.0,10.0,0.0
86.33093525179856,695.0,36.276787220001886,7.4734863052236875,11.345760761750308,0.04878048780487805,0.0,23.33333333333337,0.0
168.50777008050926,356.06666666666666,189.85104102368726,110.21055165039165,317.0375695604868,1.0,0.9743589743589743,141.66666666666666,0.0
70.95593411234691,845.5952380952378,11.410576110150311,5.414885747116083,9.02670933848439,0.0,0.0,6.6666666666667425,0.0
97.0524802300503,618.2222222222223,220.9838829942353,154.90642336585015,292.96947129540837,0.8,0.8,280.0,1.0
176.41817641817642,340.1010101010101,151.3719188305001,80.6536003465617,242.68318175278037,0.9649122807017544,0.9298245614035088,165.0,0.0
76.32826141182339,786.0784313725491,78.22571075021312,49.714876722271924,60.70671016863134,0.5161290322580645,0.22580645161290322,55.0,0.0
166.14296936370778,361.13475177304963,169.93014361664018,134.49717279366692,298.6646959394441,0.9459459459459459,0.8918918918918919,73.33333333333337,0.0
92.18163195629907,650.8888888888889,29.4089933334837,11.211097414355109,16.84750378656683,0.18181818181818182,0.022727272727272728,19.999999999999886,0.0
153.13225058004642,391.8181818181818,167.29556278032942,61.50371620713961,311.5912792353282,1.0,1.0,130.0,0.0
185.20900321543405,323.95833333333337,207.15964528416066,138.491104725275,314.65984604561527,0.9210526315789473,0.8947368421052632,161.66666666666669,0.0
187.2731671909025,320.3875968992248,187.44054602933562,138.97031901083133,260.48099205550915,0.90625,0.8125,163.33333333333334,0.0
186.94736842105266,320.9459459459459,174.9513190722671,110.1430665000717,270.90172590450436,0.9558823529411765,0.9117647058823529,120.0,0.0
76.4631843926998,784.6913580246915,146.26842470346756,106.40741178171562,124.80322676368596,0.5652173913043478,0.21739130434782608,16.666666666666742,0.0
85.10147601476014,705.0406504065041,45.353904653597894,30.811253355443597,57.60015432078093,0.825,0.45,33.33333333333337,0.0
111.328125,538.9473684210526,144.30333804270703,158.56906011387224,204.51937464009274,0.42857142857142855,0.42857142857142855,8.333333333333258,0.0
70.223752151463,854.4117647058823,40.0385483226824,56.48804199004055,69.80492298346351,0.36363636363636365,0.3333333333333333,3.3333333333333712,0.0
118.8618081402329,504.7878787878789,107.3063463840249,85.44196236812593,112.81021137667314,0.6078431372549019,0.49019607843137253,20.0,1.0
184.48438978240304,325.2307692307692,122.9188728782716,52.82171996079698,227.87330956197565,1.0,1.0,86.66666666666669,0.0
61.09831494726634,982.0238095238095,58.32543678330852,18.94488355083677,35.2645678208275,0.5769230769230769,0.19230769230769232,26.666666666666742,0.0
78.39541547277936,765.3508771929825,46.82641500804205,13.979938552267242,23.741601960770534,0.35135135135135137,0.05405405405405406,25.0,0.0
65.0629440358968,922.183908045977,51.5972901815186,48.739952712305815,53.41429040765297,0.1111111111111111,0.07407407407407407,6.666666666666629,1.0
177.35376915858612,338.3068783068784,129.13478598319364,107.05814519325108,195.8396258201959,0.8823529411764706,0.7647058823529411,26.666666666666657,1.0
88.21563822677656,680.1515151515151,107.05647180002698,145.64553983614377,153.6590742882148,0.07692307692307693,0.07692307692307693,39.99999999999994,0.0
79.85212569316083,751.3888888888888,149.19407983157416,108.77488831962104,204.72285610416785,0.8484848484848485,0.7575757575757576,108.33333333333337,1.0
152.88942818140453,392.4404761904762,165.660643599705,67.63900681452465,310.2090095880995,1.0,1.0,156.66666666666669,0.0
75.31380753138075,796.6666666666667,144.77130295307202,88.64332399503584,131.77210967761312,1.0,0.75,86.66666666666663,0.0
86.19313647246608,696.1111111111111,133.78478466067034,91.75501844229714,191.038383464265,1.0,0.8780487804878049,66.66666666666669,1.0
79.25283522348232,757.070707070707,16.489106203969186,3.906310184721551,6.610877680286002,0.0,0.0,10.0,0.0
61.348144407977784,978.0246913580247,28.64942431871238,15.768322675541597,30.0665927567458,0.56,0.04,20.000000000000114,0.0
65.08806718768227,921.8279569892472,88.96392370055891,75.67278487257073,102.18356757072775,0.6333333333333333,0.36666666666666664,50.0,0.0
80.17156054107556,748.3950617283949,77.00873965884604,49.50916488295281,53.71391984565253,0.125,0.041666666666666664,46.66666666666674,0.0
109.80760206475834,546.4102564102564,215.60672308651507,167.31844872384082,302.94631634703086,0.8823529411764706,0.8235294117647058,235.0,0.0
76.37588918008235,785.5882352941178,152.67702805029782,102.90775728980137,220.9488691479949,0.90625,0.875,88.33333333333343,1.0
208.60341779611076,287.6271186440678,31.836747221076028,49.991675882596056,53.38718545569926,0.08620689655172414,0.06896551724137931,6.666666666666686,1.0
187.69551616266946,319.66666666666663,114.16070544047399,84.84191387582143,122.60268196300224,0.9655172413793104,0.6206896551724138,31.66666666666663,0.0
200.0,300.0,152.52174979574716,137.76013455016758,244.47088389396276,0.9117647058823529,0.8235294117647058,113.33333333333329,0.0
154.41176470588235,388.57142857142856,189.20768083051166,86.22304552871532,336.7800964031772,1.0,1.0,123.33333333333331,0.0
234.2434294462873,256.1437908496732,160.1923850850103,123.10539497359542,205.4188734762386,0.8888888888888888,0.75,139.99999999999994,0.0
72.79411764705883,824.2424242424241,15.53258174955312,8.65022478834447,14.191155304938684,0.15625,0.0,10.0,0.0
187.05715635333019,320.75757575757575,166.85726016835685,136.55511040266248,255.6683778734563,0.90625,0.8125,126.66666666666666,0.0
103.74639769452449,578.3333333333334,158.2368126855723,18.88837826107188,340.94028476813617,1.0,1.0,30.0,0.0
64.03940886699507,936.9230769230769,157.5613381493742,105.35883015574652,229.0085752460634,0.9565217391304348,0.8695652173913043,129.9999999999999,1.0
76.33183143387225,786.0416666666666,53.48570356750587,66.1853924430422,72.34946056775023,0.13333333333333333,0.13333333333333333,11.666666666666629,0.0
146.37121366131328,409.91666666666663,160.1483470272346,95.16706800849406,247.7566009884163,0.90625,0.90625,191.66666666666669,0.0
62.70936620661933,956.7948717948717,30.821803377562155,32.573516092330046,44.09585518440985,0.3333333333333333,0.20833333333333334,24.999999999999943,0.0
58.94047479826922,1017.9761904761903,71.67685024942156,38.802765698068946,54.501104304136554,0.5185185185185185,0.25925925925925924,51.666666666666686,0.0
201.58102766798422,297.6470588235294,166.131551566793,133.24534133565166,250.5845019002424,1.0,1.0,70.0,0.0
195.73097060008055,306.5432098765432,161.9365355580526,156.12914058542978,307.1817150492621,1.0,1.0,76.66666666666663,0.0
225.82738481505518,265.6896551724138,104.23596981159184,102.03757477844457,154.24151336279232,0.86,0.64,11.666666666666686,1.0
146.21848739495798,410.3448275862069,192.3146862961853,89.53451612851488,374.7737153144972,1.0,0.9607843137254902,155.0,0.0
113.9240506329114,526.6666666666666,263.33333333333337,0.0,0.0,0.0,0.0,263.33333333333337,0.0
156.0229445506692,384.5588235294118,168.42494537943864,77.49523954913474,313.6816547959978,1.0,1.0,138.33333333333334,0.0
175.24644030668128,342.375,84.27994645821745,72.71002444175761,112.38030669709589,0.8933333333333333,0.5866666666666667,50.0,1.0
155.56060950648168,385.70175438596493,175.76051605172898,122.7217000745056,300.563328062898,0.9655172413793104,0.9655172413793104,146.6666666666667,0.0
89.73913043478261,668.6046511627907,26.18985106448912,7.974907106734741,12.482792388728813,0.16666666666666666,0.0,16.66666666666663,0.0
88.46725340038863,678.2170542635658,68.01865087440969,63.70500007469987,94.17983473037776,0.6666666666666666,0.47619047619047616,30.000000000000114,1.0
64.39111641079147,931.8055555555557,82.84847372622764,75.36089369369184,82.08590157935309,0.42857142857142855,0.047619047619047616,13.333333333333314,0.0
65.82957454589784,911.4444444444445,8.805862244922029,4.297682550767801,8.819171036881965,0.0,0.0,6.666666666666629,0.0
73.68421052631578,814.2857142857143,93.70189619999118,116.02726571323177,148.6466727960412,0.875,0.5,34.99999999999994,1.0
67.87650247466416,883.9583333333333,79.00174707983783,36.34131750535044,50.997458179214576,0.6,0.23333333333333334,43.333333333333314,0.0
174.00000000000003,344.8275862068965,183.9187856059606,118.88018491436401,344.1623950072347,1.0,1.0,59.999999999999986,0.0
166.15384615384616,361.1111111111111,184.8433882758602,127.34938924476666,307.43161439719273,1.0,1.0,159.99999999999997,0.0
180.29079159935375,332.79569892473125,185.09727516045,130.87645706681283,344.40732006797145,1.0,1.0,133.33333333333331,0.0
170.2981651376147,352.32323232323233,163.12083651507248,127.28713847464418,222.53707853468222,0.9523809523809523,0.9047619047619048,70.00000000000003,0.0
115.53273427471116,519.3333333333334,154.36464765108767,0.0,340.0,1.0,1.0,63.333333333333314,1.0
111.87072715972653,536.3333333333334,215.9961419408535,114.85363740296327,421.50523919242886,1.0,1.0,93.33333333333326,0.0
120.01356085433383,499.94350282485874,114.14546427793576,86.21856242905318,134.9762289274631,0.7758620689655172,0.6724137931034483,106.66666666666663,1.0
87.26769017661319,687.5396825396825,49.851947597504136,18.878601982048774,27.15008971023323,0.3902439024390244,0.07317073170731707,21.666666666666686,0.0
185.56701030927837,323.3333333333333,147.88159289526666,148.3148367808421,310.1662238538443,1.0,0.9444444444444444,80.0,0.0
148.46416382252562,404.13793103448273,202.08236849617055,111.98449793510608,373.67469512635955,1.0,0.95,110.00000000000003,0.0
82.91110087517274,723.6666666666666,19.174636024359533,5.175000172041234,8.439494725697216,0.0,0.0,13.333333333333258,0.0
151.70670037926675,395.5,182.55676438363557,104.8747558609613,382.82707017211527,1.0,0.9090909090909091,11.666666666666657,0.0
179.13148371531966,334.949494949495,191.53837816790852,133.54764027201014,283.58126407316354,0.95,0.9,180.0,0.0
121.27045235803658,494.76190476190476,177.70456258809412,125.22632571892069,235.16289524835182,0.8571428571428571,0.7142857142857143,138.33333333333337,0.0
109.60572385446797,547.4166666666666,152.63516323428084,142.76314367771454,215.1441008417013,0.8571428571428571,0.6857142857142857,70.0,1.0
180.68660911463562,332.06666666666666,174.00241377636115,148.65188801492968,281.85994614305537,0.9210526315789473,0.9210526315789473,110.00000000000003,0.0
177.99442896935932,337.0892018779343,138.95083015615432,91.27007900757296,251.56765436403433,0.96875,0.9375,23.333333333333343,0.0
205.00223313979453,292.67973856209153,163.37670440287334,135.27535952380495,264.0377897497902,0.9743589743589743,0.8974358974358975,113.33333333333331,0.0
85.3771402128644,702.7642276422765,24.080965945751174,5.626697274798263,10.684880283216398,0.05,0.0,13.333333333333371,0.0
70.3883495145631,852.4137931034484,5.994668878347275,4.2873470010334245,8.240220541217429,0.0,0.0,3.3333333333333712,0.0
196.6580976863753,305.0980392156863,145.11035983727362,138.48294209947034,258.5478093060734,1.0,0.7727272727272727,74.99999999999997,0.0
97.15142428785609,617.5925925925925,111.04612296974531,95.43729168407353,110.03246274233281,0.4642857142857143,0.17857142857142858,40.0,0.0
63.709296838131195,941.7777777777777,12.728891992550839,7.09298787151334,11.613177876151816,0.10344827586206896,0.0,10.0,0.0
217.82178217821783,275.45454545454544,172.52885999114434,151.3590057152567,220.55170721523683,0.875,0.5,70.0,0.0
141.32317284378246,424.5588235294118,124.83047905290078,18.615205201868793,249.18115055366005,1.0,1.0,26.66666666666663,0.0
54.964940058810214,1091.604938271605,19.612928682332136,9.116998306441534,17.553337520815145,0.2692307692307692,0.0,13.333333333333258,0.0
52.96610169491526,1132.8,29.419268062501732,15.565473029024348,30.398586711787694,0.5833333333333334,0.08333333333333333,23.333333333333258,0.0
53.216650898770105,1127.4666666666667,83.34815868125438,28.103644155426096,53.054828383614776,0.8333333333333334,0.3333333333333333,46.66666666666674,0.0
91.1062906724512,658.5714285714286,36.13717879981747,7.951066100789248,11.081832770072825,0.05263157894736842,0.0,6.6666666666667425,0.0
120.7648440120765,496.8333333333333,89.19065097992178,69.24857627763865,111.19958812534651,0.8983050847457628,0.5932203389830508,55.00000000000003,1.0
152.4616199047115,393.54166666666663,232.59845212416087,215.46448271271436,435.17921869150916,1.0,1.0,210.0,0.0
71.61532340570649,837.8095238095239,89.68000558296453,74.51805939817936,135.63696259101,0.8823529411764706,0.7058823529411765,46.66666666666663,0.0
177.8901401976557,337.28682170542635,178.7644297696842,121.09357671234115,315.08728949292765,1.0,1.0,146.66666666666669,0.0
54.36802973977695,1103.5897435897436,20.999045092719072,18.279800631054787,35.35848161646967,0.64,0.16,15.0,0.0
77.65128819652487,772.6851851851851,51.638698788989906,18.495144161503227,32.211515011660126,0.5,0.11764705882352941,35.00000000000006,0.0
79.11591108878564,758.3809523809524,21.856261005138023,8.079545355887385,13.013849136987481,0.15151515151515152,0.0,13.333333333333485,0.0
134.32835820895522,446.6666666666667,206.60057186827024,108.80589889522062,389.38665080391416,1.0,0.9767441860465116,74.99999999999999,0.0
177.70286539850707,337.64227642276427,141.66498115197982,99.17002509604916,219.8303819434357,1.0,0.9285714285714286,89.99999999999994,1.0
117.45939675174014,510.8148148148148,216.7836214891553,73.05497746150857,429.50644171628375,1.0,0.9743589743589743,86.66666666666663,0.0
143.61702127659572,417.7777777777778,205.46939872926345,58.465564413783106,416.78771574987667,1.0,1.0,156.66666666666666,0.0
177.47440273037543,338.0769230769231,161.44558787258325,101.61086036351902,249.1243925491098,1.0,0.9523809523809523,148.33333333333337,0.0
65.16040444388965,920.8045977011494,60.31624939058269,16.187440398107423,29.731307022799232,0.5555555555555556,0.07407407407407407,56.66666666666663,0.0
76.20137299771167,787.3873873873873,57.532521865056765,17.803559623113912,27.971546389275787,0.4166666666666667,0.08333333333333333,26.66666666666663,0.0
71.60493827160496,837.9310344827584,113.30768402488467,87.24667471325604,151.5969126718085,0.8846153846153846,0.6923076923076923,93.33333333333326,1.0
69.76744186046511,860.0,0.0,0.0,0.0,0.0,0.0,0.0,0.0
145.85711024880163,411.36150234741785,100.26502824426252,84.89746820068886,125.06552227981936,0.782608695652174,0.5362318840579711,33.33333333333337,1.0
171.26546146527122,350.33333333333326,143.49177289617998,104.96359846143037,232.48012505805428,0.9487179487179487,0.8974358974358975,88.33333333333334,1.0
132.85948605795517,451.6049382716049,190.34703064240034,79.10204549656108,364.6689549605479,0.9795918367346939,0.9795918367346939,178.33333333333331,0.0
54.36697709539391,1103.611111111111,61.221491223706074,30.564251879665957,46.41235051355658,0.5217391304347826,0.34782608695652173,31.666666666666742,0.0
60.66441983630235,989.0476190476192,80.058793588456,21.858128414339994,39.860869143671316,0.6153846153846154,0.19230769230769232,46.666666666666686,0.0
181.96274420717856,329.7378277153558,141.92384650585154,81.83577777960804,234.76320543531224,0.9886363636363636,0.9886363636363636,123.33333333333331,0.0
71.90412782956058,834.4444444444445,12.463189345605816,3.989182904670279,6.749485577105543,0.0,0.0,6.6666666666667425,0.0
81.74196553330229,734.017094017094,29.681879199417686,12.944467891716993,20.689856824990265,0.23684210526315788,0.05263157894736842,23.33333333333337,0.0
151.17941386704788,396.87943262411346,180.3652771950438,92.10327215942006,319.07759324419897,0.972972972972973,0.9459459459459459,150.0,0.0
95.49071618037136,628.3333333333333,42.99292747494054,19.012531531807692,29.494654439794278,0.4117647058823529,0.029411764705882353,28.333333333333314,0.0
204.29447852760734,293.6936936936937,137.5281216861657,80.42032545083391,141.4955393442528,0.9259259259259259,0.7037037037037037,123.33333333333331,0.0
63.03256682619354,951.8888888888888,39.07905883598238,19.990749611319227,37.69203702604057,0.6551724137931034,0.13793103448275862,28.333333333333314,0.0
60.910151691948656,985.0574712643679,21.84270992224314,19.887367086030082,27.29178026148662,0.39285714285714285,0.07142857142857142,13.333333333333485,0.0
101.12359550561798,593.3333333333333,86.66666666666667,0.0,113.33333333333337,1.0,1.0,40.0,0.0
165.5295164639573,362.47311827956986,125.5981180997735,45.30461857407933,211.2314215506121,1.0,1.0,50.0,0.0
69.20657112897587,866.9696969696971,40.72874576460715,13.787433262657059,17.470212744363863,0.15625,0.03125,10.0,0.0
184.99486125385403,324.33333333333337,165.57341439843404,72.22127254836211,163.1518265865219,0.8888888888888888,0.8888888888888888,165.0,0.0
187.61726078799254,319.79999999999995,172.91412126640594,130.00098337990704,266.2833783900858,0.8717948717948718,0.8461538461538461,136.66666666666669,0.0
151.4969339906216,396.04761904761904,170.01707930745027,60.64999390652242,332.34559538414504,1.0,1.0,115.00000000000006,0.0
177.0797376596479,338.83040935672517,165.3780490701755,154.56132746825858,264.6143853740002,0.9782608695652174,0.8695652173913043,140.00000000000003,1.0
163.2164242942686,367.61006289308176,162.40640247018715,82.40014725576872,283.62866505034873,1.0,1.0,123.33333333333333,0.0
164.98368805344106,363.67231638418076,120.6506137139369,31.039081110964247,222.36923555896155,1.0,1.0,83.33333333333331,0.0
183.10727496917386,327.67676767676767,198.27281964273547,140.3890833647628,321.93332042820975,0.9565217391304348,0.9565217391304348,159.99999999999994,0.0
161.28486897717664,372.01257861635224,211.8089598699531,130.82179591528845,386.38149097188466,1.0,0.9772727272727273,93.33333333333331,0.0
192.73199221284878,311.31313131313135,156.22857163542582,120.66196814694553,246.92731605718453,0.8947368421052632,0.8947368421052632,143.33333333333337,1.0
101.82275298554369,589.2592592592592,177.85954909531725,34.42988043352265,167.7382219743345,1.0,1.0,156.66666666666663,0.0
95.1417004048583,630.6382978723404,7.06733229410105,2.6217467413225415,3.9623835114470416,0.0,0.0,6.6666666666667425,0.0
79.16102841677943,757.9487179487179,13.303714636997794,4.638352304000796,7.836039099693772,0.0,0.0,10.0,0.0
78.32472124014141,766.0416666666667,109.50151413209875,113.81419346865592,127.51439383426735,0.21428571428571427,0.17857142857142858,13.333333333333258,0.0
210.37868162692848,285.2,178.80114342164842,174.43326220352287,263.3769302870079,0.8,0.6666666666666666,156.66666666666663,0.0
158.8575096277279,377.69696969696963,143.93302697242052,67.46516911946803,267.1377180153964,1.0,1.0,133.33333333333337,0.0
88.6394869445717,676.8992248062015,47.2575840479078,15.441760643828966,26.155821228303736,0.4523809523809524,0.047619047619047616,33.33333333333337,0.0
86.10151474887058,696.8518518518518,127.59635537106087,115.82656995138639,233.4826362155041,0.9090909090909091,0.8181818181818182,110.00000000000006,1.0
112.11072664359864,535.1851851851851,145.95036456386032,84.38594464910011,165.3727551567916,1.0,0.6666666666666666,106.66666666666663,0.0
69.04231625835189,869.0322580645162,33.57112546212322,15.514230822850724,25.13666349879896,0.3,0.1,26.66666666666663,0.0
70.16300496102056,855.151515151515,13.807013030175163,9.908822394415692,17.310158204387704,0.25806451612903225,0.0,10.0,0.0
131.12582781456953,457.5757575757576,183.06642228399076,100.0,166.66666666666666,1.0,0.5,146.66666666666669,0.0
101.05600855500603,593.7301587301587,82.901108872896,92.16679875566332,102.64706402565258,0.19444444444444445,0.16666666666666666,18.33333333333337,0.0
170.2127659574468,352.5,251.0132245298819,255.00000000000003,362.98913359921823,0.5,0.5,245.00000000000003,0.0
155.7300678823373,385.28205128205127,148.5438060890328,59.13989722972004,268.8655685600427,1.0,1.0,120.0,0.0
223.6686390532544,268.2539682539683,187.0563366108284,179.34035508764603,326.91600461597784,0.9166666666666666,0.9166666666666666,80.00000000000003,0.0
65.90819929384072,910.3571428571429,71.9310697695088,55.34899139213138,61.10800302896533,0.34615384615384615,0.038461538461538464,43.33333333333337,0.0
70.86614173228347,846.6666666666666,0.0,0.0,0.0,0.0,0.0,0.0,0.0
171.18402282453638,350.5,146.7283014433291,107.56477771973356,261.69927003434293,0.9642857142857143,0.9285714285714286,103.33333333333334,0.0
99.74226804123711,601.5503875968992,67.45023560222384,79.54802881837419,86.50947282748227,0.175,0.15,10.0,0.0
142.5115460743347,421.0185185185186,142.23702059391866,62.526917280603115,256.0840874186833,0.9615384615384616,0.9615384615384616,126.66666666666663,0.0
199.3185689948893,301.025641025641,158.98118264925222,88.05219299739348,186.91146951403874,1.0,0.9230769230769231,138.33333333333331,0.0
99.07120743034056,605.625,11.266063634420629,2.943048783155521,4.886416740098983,0.0,0.0,6.6666666666667425,0.0
165.85838991270612,361.7543859649123,144.60014810379866,83.3939594283411,252.7643464075082,1.0,0.9583333333333334,126.66666666666666,0.0
146.1038961038961,410.6666666666667,92.31347560230726,115.0,174.81736501592488,0.5,0.5,55.00000000000003,0.0
161.64938021755628,371.1737089201878,135.76894967880372,43.249371738080995,261.1681247518566,1.0,1.0,163.3333333333333,0.0
68.71818602498843,873.1313131313132,17.940030928721875,8.52322704763611,14.031215200402281,0.09375,0.0,13.333333333333485,0.0
51.59564303458819,1162.888888888889,12.699761833092944,8.811390558052093,13.052600138300877,0.1111111111111111,0.0,6.6666666666667425,1.0
177.74566473988438,337.56097560975616,160.62382519304037,110.98793172077008,207.1338804842039,0.9666666666666667,0.8,123.33333333333334,0.0
158.62068965517238,378.2608695652175,148.92811729483117,121.0560442961295,247.48635305708262,0.9696969696969697,0.8787878787878788,106.66666666666669,0.0
94.40200661270093,635.5797101449276,43.32806181885807,33.284408539913294,35.16100533682587,0.022222222222222223,0.022222222222222223,16.666666666666742,0.0
70.46632124352331,851.4705882352941,48.78384480576602,20.28870292002228,27.858468660252594,0.2727272727272727,0.12121212121212122,33.33333333333337,0.0
166.4098613251156,360.5555555555555,185.41411775193495,132.7736401028941,319.15165325872556,0.9333333333333333,0.8666666666666667,119.99999999999999,0.0
188.86198547215497,317.6923076923077,137.58013224965023,116.00196036584114,198.32736789451695,0.9629629629629629,0.8518518518518519,123.33333333333334,0.0
179.90773962070733,333.5042735042735,203.99562689847784,148.12992907745732,364.5550481638712,1.0,1.0,143.33333333333331,0.0
58.01959773078907,1034.1333333333332,52.266666666666666,29.983277232154695,48.44813951249542,0.7083333333333334,0.3333333333333333,23.333333333333144,0.0
148.66818087962008,403.5833333333333,115.44933352389312,112.13584800580017,129.18251663969076,0.4827586206896552,0.1724137931034483,13.333333333333343,1.0
180.17159199237366,333.01587301587307,147.45305567575707,74.68635836751096,249.58484047031502,1.0,0.9814814814814815,183.33333333333337,0.0
69.73564266180492,860.3921568627451,21.583773648053917,9.666408068905248,16.143297699232985,0.24242424242424243,0.0,13.333333333333258,0.0
173.65771812080536,345.5072463768116,170.73896989618345,99.98865756512724,298.24103074241924,1.0,0.9411764705882353,143.33333333333331,0.0
54.994124559341955,1091.0256410256409,53.3234704884347,30.859106345525383,47.6188571424762,0.6,0.24,26.666666666666856,0.0
78.98383371824481,759.6491228070174,35.842324238710745,11.372781144547394,21.919864974047645,0.40540540540540543,0.0,20.000000000000114,0.0
114.91242429202815,522.1367521367522,177.44384317633924,128.88333321359636,144.2965054375243,0.26666666666666666,0.16666666666666666,40.000000000000114,0.0
69.9029126213592,858.3333333333335,19.95828983989693,9.047322443270431,15.275252316519463,0.15384615384615385,0.0,13.333333333333371,0.0
187.87878787878785,319.3548387096775,161.9137771225988,152.33150983591312,250.34642664382756,0.9,0.85,106.66666666666669,0.0
226.68240850059033,264.6875,198.66369435521207,213.82137915908058,330.6979151901492,0.8636363636363636,0.6818181818181818,83.33333333333334,0.0
91.09784583441474,658.6324786324786,33.313822911672624,4.3492300025135044,8.124842884353194,0.0,0.0,23.33333333333337,0.0
157.84079262043048,380.12987012987014,126.44597036817608,30.063382055203093,247.49062242261726,1.0,1.0,106.66666666666666,0.0
82.73748723186927,725.1851851851851,105.76522386340025,22.236106773543884,34.721111093332766,0.45,0.25,26.66666666666663,0.0
105.70469798657719,567.6190476190476,157.1476670740544,197.00564007718717,274.3942824153269,0.7,0.6,13.333333333333258,0.0
167.6744566105573,357.83625730994146,152.86285719676556,75.98529747325311,261.8240856984931,1.0,1.0,113.33333333333334,0.0
85.79285059578369,699.3589743589744,111.89898997722196,93.29165736191707,173.82302622047646,0.95,0.9,96.66666666666674,1.0
74.62924573433266,803.9743589743589,33.7413392593779,14.775166853729802,26.087459737497554,0.4,0.0,20.000000000000057,0.0
84.91542975491888,706.5853658536586,16.036675528098765,11.671130098571316,15.643600040343069,0.125,0.025,10.0,0.0
64.92785793562709,924.102564102564,14.714017164516488,7.488064577119448,16.944353369518453,0.24,0.0,11.666666666666629,0.0
164.35354273192112,365.06666666666666,198.6020476564462,155.97308795643772,352.6211375778069,1.0,1.0,130.0,0.0
157.85340314136127,380.0995024875622,125.17843999886124,17.566527810172264,245.31725490791626,1.0,1.0,160.0,0.0
112.93596604539582,531.2745098039217,266.95207117476775,24.51001307100303,533.8962307276435,1.0,1.0,256.6666666666667,0.0
79.60086177571154,753.7606837606837,33.30921766266589,7.529566222412253,12.658353689506967,0.05263157894736842,0.0,26.66666666666663,0.0
125.6544502617801,477.5,133.69482247101254,0.0,0.0,0.0,0.0,43.33333333333337,0.0
107.08215297450427,560.3174603174602,120.05027501474602,95.64350798394783,163.7427278131182,0.8974358974358975,0.7435897435897436,76.66666666666663,1.0
111.23052122514777,539.4202898550725,220.32837191877888,36.325007540804535,450.3562375950185,1.0,1.0,80.00000000000011,0.0
66.484268125855,902.469135802469,45.14806543843721,18.54392991504151,32.24303842025512,0.5652173913043478,0.043478260869565216,33.33333333333326,0.0
80.77468115257439,742.8070175438597,16.693422660161787,10.584349939832569,19.665411133808714,0.3888888888888889,0.0,13.333333333333258,0.0
52.26342879767717,1148.0303030303032,9.026285459761532,6.633249580710811,15.491933384829723,0.15,0.0,6.6666666666667425,0.0
177.26051924798566,338.4848484848485,154.75861710551496,113.51564856501413,219.42264308018963,0.9166666666666666,0.8333333333333334,131.66666666666669,0.0
152.41133881457847,393.6714975845411,165.8969131899982,45.641774698549305,324.3555082413365,1.0,1.0,23.333333333333286,0.0
184.1726618705036,325.78125,121.31118471652312,55.853692484761375,222.25601594898262,0.9814814814814815,0.9629629629629629,98.33333333333334,0.0
219.82151244715828,272.94871794871796,197.58223847273015,179.41451769853444,259.5967568951434,0.8571428571428571,0.6428571428571429,133.33333333333334,0.0
61.31718395155186,978.5185185185184,3.552467795046454,2.6666666666666594,3.7712361663282445,0.0,0.0,3.3333333333332575,0.0
200.27327737653715,299.59064327485385,149.1144361828985,96.45273243730824,211.91785848285969,0.9347826086956522,0.8478260869565217,146.66666666666669,0.0
226.89075630252094,264.4444444444445,160.5853490234637,147.90866175522723,219.48804067647967,0.85,0.8,73.33333333333334,1.0
169.35791481246025,354.2792792792793,225.37490971936538,202.259470344961,342.9155067594923,0.8656716417910447,0.8208955223880597,265.0,0.0
182.0610687022901,329.5597484276729,176.01343303969412,151.34086175712682,326.13010679918307,0.9761904761904762,0.9047619047619048,43.33333333333334,0.0
149.1197790818088,402.3611111111111,170.84795556211108,19.862742678512525,338.27972143573805,1.0,1.0,79.99999999999994,0.0
81.54020385050963,735.8333333333334,11.314117696897968,5.367239163278256,11.098405433872191,0.02857142857142857,0.0,6.6666666666667425,0.0
68.06462701959437,881.5151515151515,16.698775315301276,12.325166214790878,23.848480035423638,0.53125,0.03125,10.0,0.0
71.75398633257403,836.1904761904763,41.01987793116318,16.38516597338563,30.964875737063178,0.6176470588235294,0.11764705882352941,26.66666666666663,0.0
66.52038341609887,901.9791666666666,56.15491577744748,11.357200796998619,19.99103741832654,0.2903225806451613,0.0,28.333333333333314,0.0
81.5450643776824,735.7894736842106,7.3223286858628835,2.95136619453874,5.030769521187442,0.0,0.0,6.666666666666515,0.0
69.19528446950281,867.1111111111112,76.39436344019171,30.873525927153242,47.933485661060026,0.5714285714285714,0.25,31.666666666666686,0.0
192.735670795717,311.3071895424836,179.68270076678618,108.21788720498618,245.17567397911054,0.8947368421052632,0.868421052631579,170.0,0.0
172.2488038277512,348.3333333333333,122.6973089746863,0.0,250.0,1.0,1.0,13.333333333333385,0.0
74.49450159631074,805.4285714285716,15.555037244361372,5.97071382065926,9.101004495564377,0.030303030303030304,0.0,13.333333333333371,0.0
77.42811863255602,774.9122807017545,12.721415431777745,4.993299625423789,7.903319711517586,0.0,0.0,9.999999999999886,0.0
77.93119588111396,769.90990990991,53.907308315122485,39.06167523134776,57.58782878952252,0.6666666666666666,0.3055555555555556,26.66666666666663,0.0
136.117381489842,440.79601990049747,82.94354521169713,70.56269531418894,117.4891641969748,0.8333333333333334,0.6515151515151515,56.666666666666686,1.0
86.49687650168188,693.6666666666666,54.271948964860684,44.89694433875447,83.97472468525818,0.9473684210526315,0.5526315789473685,38.333333333333314,1.0
177.02279839070184,338.93939393939394,159.16095139234855,135.44950582209955,245.70626493325517,0.9705882352941176,0.8823529411764706,75.0,0.0
174.06143344709898,344.70588235294116,188.33657406036835,111.95916037751607,310.5581128604027,1.0,0.975609756097561,136.66666666666666,0.0
68.0724272289709,881.4141414141413,52.91521904028191,21.227265207615524,38.38311984308842,0.6875,0.125,50.000000000000114,0.0
54.34908837533387,1103.9743589743591,4.980237076808978,4.079215610874238,6.0,0.0,0.0,3.3333333333332575,0.0
81.6141464520517,735.1666666666666,9.278110439811192,3.752905709418829,5.623515948579827,0.0,0.0,8.333333333333258,0.0
74.15730337078652,809.090909090909,17.06144031546576,10.622872288368571,17.556871236030823,0.25806451612903225,0.0,13.333333333333371,0.0
165.98860862489832,361.4705882352941,153.6722409275017,110.75452986498341,200.37530923311022,0.9523809523809523,0.8571428571428571,93.33333333333334,0.0
62.17246307765601,965.057471264368,41.167080268341294,20.333299601941928,39.67978826440255,0.7407407407407407,0.2962962962962963,30.000000000000114,0.0
84.75938899735844,707.8861788617886,44.22016914386057,11.518101695447324,17.368553960150695,0.15,0.0,16.666666666666742,0.0
150.0735654732712,399.80392156862746,147.3090681297277,39.20567511135983,287.94199116797427,1.0,1.0,121.66666666666669,0.0
86.98363211223695,689.7849462365591,98.5738283217966,73.20748782667002,83.56200509592963,0.21739130434782608,0.17391304347826086,10.0,0.0
171.4567252422401,349.94252873563215,150.5373407162732,147.17167860993982,263.8400360556569,0.8163265306122449,0.7551020408163265,18.33333333333333,1.0
172.2793335696562,348.27160493827154,175.2208961418394,159.6651629019973,262.40217598332583,0.7647058823529411,0.7647058823529411,130.00000000000003,0.0
240.8698076386953,249.0972222222222,155.9791943380848,149.20006923812286,238.96674476818964,0.8648648648648649,0.8108108108108109,90.0,0.0
63.76195536663125,940.9999999999999,22.462314118441927,11.666666666666663,24.608038433722328,0.5714285714285714,0.0,16.666666666666686,0.0
122.3021582733813,490.5882352941176,167.06710832812396,95.1459851368113,127.12271703037653,0.6666666666666666,0.4791666666666667,56.66666666666663,1.0
170.45454545454547,352.0,216.02829032842484,155.87343512535347,394.5919129655064,1.0,1.0,173.33333333333337,0.0
72.68951194184838,825.4285714285716,18.756344353704407,15.523976569159107,26.178122882419583,0.4117647058823529,0.058823529411764705,10.0,0.0
69.40063091482651,864.5454545454545,25.96057852953206,10.015179451434912,17.179606773406917,0.3125,0.0,16.66666666666663,0.0
